* frequency_hz	amplitude
20.299999	104.625366
20.600000	104.649513
20.900000	104.666367
21.200001	104.680832
21.400000	104.689835
21.799999	104.706032
22.000000	104.712952
22.400000	104.724152
22.700001	104.730789
23.000000	104.737038
23.299999	104.744133
23.600000	104.752998
24.000000	104.768066
24.299999	104.781204
24.700001	104.799370
25.000000	104.812088
25.400000	104.826324
25.799999	104.836594
26.200001	104.843010
26.500000	104.845818
26.900000	104.847832
27.200001	104.848526
27.600000	104.848427
28.000000	104.846657
28.500000	104.841064
29.000000	104.832939
29.500000	104.826103
30.000000	104.823624
30.400000	104.823524
30.700001	104.822464
31.100000	104.817261
31.500000	104.806900
32.000000	104.789719
32.500000	104.773392
33.000000	104.760414
33.500000	104.748001
34.000000	104.732880
34.500000	104.716141
35.000000	104.702103
35.500000	104.692673
36.000000	104.684586
36.500000	104.672760
37.000000	104.655136
37.500000	104.633560
38.200001	104.601425
38.700001	104.577850
39.500000	104.540710
40.000000	104.521423
40.599998	104.503471
41.200001	104.485168
41.799999	104.459961
42.500000	104.423355
43.099998	104.393044
43.700001	104.366684
44.400002	104.337151
45.000000	104.309418
45.500000	104.284180
46.200001	104.246811
46.799999	104.214333
47.500000	104.178391
48.200001	104.146706
48.700001	104.124603
49.400002	104.086746
50.000000	104.046692
50.799999	103.995705
51.500000	103.961586
52.200001	103.930214
53.000000	103.892097
53.799999	103.853729
54.500000	103.815987
55.200001	103.773430
56.000000	103.724304
57.000000	103.665543
58.000000	103.617859
59.000000	103.575951
60.000000	103.519493
60.799999	103.463043
61.500000	103.416351
62.200001	103.378265
63.000000	103.337227
64.000000	103.283760
65.000000	103.227699
66.000000	103.161736
67.000000	103.105225
68.000000	103.044746
69.000000	102.984795
70.000000	102.932701
71.000000	102.873726
72.000000	102.816895
73.000000	102.762016
74.000000	102.704681
75.000000	102.646118
76.199997	102.572250
77.500000	102.501747
78.800003	102.426277
80.000000	102.361610
81.199997	102.301056
82.500000	102.226036
83.800003	102.143730
85.000000	102.084183
86.199997	102.022781
87.500000	101.955467
88.500000	101.900848
90.000000	101.820557
91.199997	101.752792
92.500000	101.681702
93.800003	101.609138
95.000000	101.545479
96.199997	101.487526
97.500000	101.415535
98.800003	101.349129
100.000000	101.288589
101.500000	101.207275
103.000000	101.134743
104.400002	101.063232
106.000000	100.980019
107.500000	100.903519
109.000000	100.829712
110.599998	100.754440
112.000000	100.687248
113.800003	100.602264
115.000000	100.543579
117.199997	100.437683
118.000000	100.402275
120.599998	100.284447
122.000000	100.210617
124.099998	100.116707
125.000000	100.078979
126.500000	100.015076
128.000000	99.947586
131.500000	99.797081
132.000000	99.776070
134.000000	99.682465
136.000000	99.600922
138.000000	99.519547
140.000000	99.431641
143.000000	99.315529
145.000000	99.248505
147.500000	99.149811
150.000000	99.039696
152.500000	98.940346
155.000000	98.839203
157.500000	98.760277
160.000000	98.668762
162.500000	98.565376
165.000000	98.486008
167.500000	98.394615
170.000000	98.295311
172.500000	98.220284
175.000000	98.123741
177.500000	98.038040
180.000000	98.025780
182.500000	97.887497
185.000000	97.798332
187.500000	97.732056
190.000000	97.619987
192.500000	97.551956
195.000000	97.483948
197.500000	97.415504
200.000000	97.322563
203.000000	97.262520
206.000000	97.201485
209.000000	97.150192
212.000000	97.077637
214.000000	97.024620
218.000000	96.962471
220.000000	96.928368
224.000000	96.850594
227.000000	96.831184
230.000000	96.767517
233.000000	96.722229
236.000000	96.661934
240.000000	96.500015
243.000000	96.502037
247.000000	96.415443
250.000000	96.349983
254.000000	96.263885
258.000000	96.182045
262.000000	96.117950
265.000000	96.072174
269.000000	96.011185
272.000000	95.964531
276.000000	95.894501
280.000000	95.826897
285.000000	95.743271
290.000000	95.662323
295.000000	95.588394
300.000000	95.524803
304.000000	95.461395
307.000000	95.423187
311.000000	95.372421
315.000000	95.322212
320.000000	95.261078
325.000000	95.201714
330.000000	95.148254
335.000000	95.091278
340.000000	95.038422
345.000000	94.986099
350.000000	94.936699
355.000000	94.888947
360.000000	94.848145
365.000000	94.801903
370.000000	94.762466
375.000000	94.722977
382.000000	94.675690
387.000000	94.637184
395.000000	94.582176
400.000000	94.548088
406.000000	94.509132
412.000000	94.475716
418.000000	94.443077
425.000000	94.416931
431.000000	94.395554
437.000000	94.377884
444.000000	94.363312
450.000000	94.346252
455.000000	94.331619
462.000000	94.310677
468.000000	94.291435
475.000000	94.272743
482.000000	94.256226
487.000000	94.240265
494.000000	94.224472
500.000000	94.216011
508.000000	94.199852
515.000000	94.186111
522.000000	94.176270
530.000000	94.168015
538.000000	94.162224
545.000000	94.156754
552.000000	94.155846
560.000000	94.155411
570.000000	94.153687
580.000000	94.155647
590.000000	94.157242
600.000000	94.162453
608.000000	94.162949
615.000000	94.170097
622.000000	94.172134
630.000000	94.175751
640.000000	94.182083
650.000000	94.179115
660.000000	94.178719
670.000000	94.181450
680.000000	94.177505
690.000000	94.183136
700.000000	94.191902
710.000000	94.197800
720.000000	94.210052
730.000000	94.225227
740.000000	94.239136
750.000000	94.257309
762.000000	94.278305
775.000000	94.297211
788.000000	94.322609
800.000000	94.349464
812.000000	94.372787
825.000000	94.404030
838.000000	94.434814
850.000000	94.464745
862.000000	94.498932
875.000000	94.536926
885.000000	94.568291
900.000000	94.616470
912.000000	94.661850
925.000000	94.706406
938.000000	94.759697
950.000000	94.808121
962.000000	94.857422
975.000000	94.914764
988.000000	94.975357
1000.000000	95.031723
1015.000000	95.108635
1030.000000	95.189316
1044.000000	95.262856
1060.000000	95.351730
1075.000000	95.435051
1090.000000	95.514435
1106.000000	95.604904
1120.000000	95.682083
1138.000000	95.776932
1150.000000	95.838104
1172.000000	95.948624
1180.000000	95.985725
1206.000000	96.105072
1220.000000	96.160675
1241.000000	96.240356
1250.000000	96.272324
1265.000000	96.318962
1280.000000	96.363693
1315.000000	96.451935
1320.000000	96.460342
1340.000000	96.498489
1360.000000	96.532707
1380.000000	96.563393
1400.000000	96.583954
1430.000000	96.620773
1450.000000	96.640488
1475.000000	96.659523
1500.000000	96.677231
1525.000000	96.698586
1550.000000	96.717987
1575.000000	96.740295
1600.000000	96.764069
1625.000000	96.794891
1650.000000	96.825729
1675.000000	96.861244
1700.000000	96.903511
1725.000000	96.949028
1750.000000	97.000031
1775.000000	97.059143
1800.000000	97.120819
1825.000000	97.191521
1850.000000	97.265884
1875.000000	97.347214
1900.000000	97.431580
1925.000000	97.523453
1950.000000	97.620628
1975.000000	97.726143
2000.000000	97.827049
2030.000000	97.973190
2060.000000	98.118683
2090.000000	98.267853
2120.000000	98.428040
2140.000000	98.533165
2180.000000	98.753403
2200.000000	98.865570
2240.000000	99.088852
2270.000000	99.259857
2300.000000	99.431831
2330.000000	99.598579
2360.000000	99.763779
2400.000000	99.974411
2430.000000	100.121300
2470.000000	100.296692
2500.000000	100.416992
2540.000000	100.551720
2580.000000	100.650543
2620.000000	100.715698
2650.000000	100.737885
2690.000000	100.734589
2720.000000	100.705452
2760.000000	100.633087
2800.000000	100.524933
2850.000000	100.344688
2900.000000	100.121941
2950.000000	99.869995
3000.000000	99.598969
3040.000000	99.364059
3070.000000	99.187828
3110.000000	98.950531
3150.000000	98.712440
3200.000000	98.415688
3250.000000	98.126846
3300.000000	97.841721
3350.000000	97.564110
3400.000000	97.302338
3450.000000	97.049171
3500.000000	96.802505
3550.000000	96.575165
3600.000000	96.359314
3650.000000	96.156151
3700.000000	95.963989
3750.000000	95.783554
3820.000000	95.545746
3870.000000	95.388527
3950.000000	95.158775
4000.000000	95.026817
4060.000000	94.936913
4120.000000	94.884224
4180.000000	94.883377
4250.000000	94.963684
4310.000000	95.096588
4370.000000	95.280708
4440.000000	95.506958
4500.000000	95.652107
4550.000000	95.702560
4620.000000	95.640747
4680.000000	95.472115
4750.000000	95.143402
4820.000000	94.734955
4870.000000	94.437439
4940.000000	94.090500
5000.000000	93.921616
5080.000000	93.916534
5150.000000	94.115456
5220.000000	94.409988
5300.000000	94.822189
5380.000000	95.213371
5450.000000	95.500946
5520.000000	95.711403
5600.000000	95.869858
5700.000000	95.904007
5800.000000	95.789925
5900.000000	95.549942
6000.000000	95.220406
6080.000000	94.911491
6150.000000	94.624359
6220.000000	94.341827
6300.000000	94.015656
6400.000000	93.613754
6500.000000	93.248779
6600.000000	92.912628
6700.000000	92.608681
6800.000000	92.343124
6900.000000	92.152855
7000.000000	92.338020
7100.000000	92.256203
7200.000000	92.231422
7300.000000	92.278824
7400.000000	92.388680
7500.000000	92.532700
7620.000000	92.747772
7750.000000	93.006561
7880.000000	93.238762
8000.000000	93.396957
8120.000000	93.444351
8250.000000	93.392181
8380.000000	93.283813
8500.000000	93.188377
8620.000000	93.147362
8750.000000	93.175072
8850.000000	93.261917
9000.000000	93.431381
9120.000000	93.605911
9250.000000	93.796722
9380.000000	93.970222
9500.000000	94.100845
9620.000000	94.168198
9750.000000	94.191376
9880.000000	94.142723
10000.000000	94.042557
10150.000000	93.862396
10300.000000	93.568504
10440.000000	93.177368
10600.000000	92.584190
10750.000000	91.884338
10900.000000	91.088791
11060.000000	90.073074
11200.000000	89.102051
11380.000000	88.144157
11500.000000	87.496292
11720.000000	86.275581
11800.000000	85.848373
12060.000000	84.558678
12200.000000	83.957550
12410.000000	83.141670
12500.000000	82.854706
12650.000000	82.453957
12800.000000	82.121155
13150.000000	81.630981
13200.000000	81.624374
13400.000000	81.654419
13600.000000	81.803185
13800.000000	82.117195
14000.000000	82.617699
14300.000000	83.694298
14500.000000	84.618683
14750.000000	86.039856
15000.000000	87.512383
15250.000000	88.635193
15500.000000	88.913498
15750.000000	88.156342
16000.000000	86.612183
16250.000000	84.596863
16500.000000	82.373917
16750.000000	80.547516
17000.000000	79.430557
17250.000000	79.113213
17500.000000	79.470146
17750.000000	80.043152
18000.000000	80.322899
18250.000000	80.485329
18500.000000	80.479408
18750.000000	80.744728
19000.000000	81.199936
19250.000000	81.737404
19500.000000	82.095848
19750.000000	81.516815
