* frequency_hz	amplitude
20.000000	103.422791
20.299999	103.489746
20.600000	103.572487
20.900000	103.668549
21.200001	103.773232
21.400000	103.844116
21.799999	103.974510
22.000000	104.027657
22.400000	104.100983
22.700001	104.126289
23.000000	104.134514
23.299999	104.138824
23.600000	104.153206
24.000000	104.202965
24.299999	104.260902
24.700001	104.348038
25.000000	104.406113
25.400000	104.462547
25.799999	104.498199
26.200001	104.526550
26.500000	104.549828
26.900000	104.584869
27.200001	104.611984
27.600000	104.646378
28.000000	104.680038
28.500000	104.726952
29.000000	104.778168
29.500000	104.821861
30.000000	104.850098
30.400000	104.866432
30.700001	104.879936
31.100000	104.903000
31.500000	104.930031
32.000000	104.961365
32.500000	104.984879
33.000000	105.004616
33.500000	105.026794
34.000000	105.051910
34.500000	105.076599
35.000000	105.098991
35.500000	105.119690
36.000000	105.139038
36.500000	105.156532
37.000000	105.172218
37.500000	105.186394
38.200001	105.201805
38.700001	105.209229
39.500000	105.223648
40.000000	105.237053
40.599998	105.249695
41.200001	105.253761
41.799999	105.261047
42.500000	105.288330
43.099998	105.311340
43.700001	105.312996
44.400002	105.302696
45.000000	105.308884
45.500000	105.320953
46.200001	105.321960
46.799999	105.305954
47.500000	105.299942
48.200001	105.320381
48.700001	105.331589
49.400002	105.316994
50.000000	105.293022
50.799999	105.292061
51.500000	105.294472
52.200001	105.249657
53.000000	105.197495
53.799999	105.226181
54.500000	105.258476
55.200001	105.249954
56.000000	105.239975
57.000000	105.251549
58.000000	105.241592
59.000000	105.241852
60.000000	105.239182
60.799999	105.226639
61.500000	105.215492
62.200001	105.204681
63.000000	105.189026
64.000000	105.169907
65.000000	105.157379
66.000000	105.138573
67.000000	105.118752
68.000000	105.099854
69.000000	105.078880
70.000000	105.055923
71.000000	105.030937
72.000000	105.009216
73.000000	104.989342
74.000000	104.965820
75.000000	104.936974
76.199997	104.906479
77.500000	104.871689
78.800003	104.839409
80.000000	104.805977
81.199997	104.778603
82.500000	104.737625
83.800003	104.703369
85.000000	104.672546
86.199997	104.638824
87.500000	104.596916
88.500000	104.567223
90.000000	104.523361
91.199997	104.488281
92.500000	104.451065
93.800003	104.415009
95.000000	104.383835
96.199997	104.347977
97.500000	104.307816
98.800003	104.272751
100.000000	104.233177
101.500000	104.192535
103.000000	104.145157
104.400002	104.103470
106.000000	104.056343
107.500000	104.010040
109.000000	103.960693
110.599998	103.914116
112.000000	103.869812
113.800003	103.811127
115.000000	103.773170
117.199997	103.702972
118.000000	103.676025
120.599998	103.591003
122.000000	103.548615
124.099998	103.477386
125.000000	103.448975
126.500000	103.397232
128.000000	103.347282
131.500000	103.234421
132.000000	103.217812
134.000000	103.154007
136.000000	103.088844
138.000000	103.029083
140.000000	102.966843
143.000000	102.878540
145.000000	102.819992
147.500000	102.747849
150.000000	102.673630
152.500000	102.598938
155.000000	102.524765
157.500000	102.449280
160.000000	102.369598
162.500000	102.293907
165.000000	102.224525
167.500000	102.141998
170.000000	102.065323
172.500000	101.988106
175.000000	101.913986
177.500000	101.837616
180.000000	101.763329
182.500000	101.688492
185.000000	101.613907
187.500000	101.538765
190.000000	101.465179
192.500000	101.390274
195.000000	101.311348
197.500000	101.239822
200.000000	101.164513
203.000000	101.075996
206.000000	100.983315
209.000000	100.893509
212.000000	100.803169
214.000000	100.747566
218.000000	100.627945
220.000000	100.568726
224.000000	100.455582
227.000000	100.373184
230.000000	100.296600
233.000000	100.225372
236.000000	100.159126
240.000000	100.083817
243.000000	100.045624
247.000000	100.002739
250.000000	99.970032
254.000000	99.922607
258.000000	99.860023
262.000000	99.792267
265.000000	99.737335
269.000000	99.659546
272.000000	99.597740
276.000000	99.515137
280.000000	99.427879
285.000000	99.323128
290.000000	99.219025
295.000000	99.111115
300.000000	99.006760
304.000000	98.923630
307.000000	98.860558
311.000000	98.777687
315.000000	98.699242
320.000000	98.601967
325.000000	98.504494
330.000000	98.404938
335.000000	98.311050
340.000000	98.220650
345.000000	98.133568
350.000000	98.045311
355.000000	97.958694
360.000000	97.869545
365.000000	97.788887
370.000000	97.706894
375.000000	97.625397
382.000000	97.514404
387.000000	97.434685
395.000000	97.310593
400.000000	97.236588
406.000000	97.145721
412.000000	97.058853
418.000000	96.977608
425.000000	96.877556
431.000000	96.797867
437.000000	96.715736
444.000000	96.626282
450.000000	96.550171
455.000000	96.482452
462.000000	96.398712
468.000000	96.322205
475.000000	96.243301
482.000000	96.157608
487.000000	96.102379
494.000000	96.022285
500.000000	95.957077
508.000000	95.871407
515.000000	95.795242
522.000000	95.722397
530.000000	95.643860
538.000000	95.563148
545.000000	95.497330
552.000000	95.433838
560.000000	95.357803
570.000000	95.268860
580.000000	95.181847
590.000000	95.097458
600.000000	95.020523
608.000000	94.955215
615.000000	94.905014
622.000000	94.850845
630.000000	94.790848
640.000000	94.721703
650.000000	94.654793
660.000000	94.594437
670.000000	94.533195
680.000000	94.472305
690.000000	94.417305
700.000000	94.360748
710.000000	94.309799
720.000000	94.260185
730.000000	94.216072
740.000000	94.173424
750.000000	94.130920
762.000000	94.083611
775.000000	94.041611
788.000000	94.000404
800.000000	93.957382
812.000000	93.921638
825.000000	93.886742
838.000000	93.849365
850.000000	93.814133
862.000000	93.783585
875.000000	93.822014
885.000000	93.928947
900.000000	94.042374
912.000000	94.081055
925.000000	94.112175
938.000000	94.144440
950.000000	94.180389
962.000000	94.221657
975.000000	94.276474
988.000000	94.335938
1000.000000	94.394150
1015.000000	94.485268
1030.000000	94.578766
1044.000000	94.672005
1060.000000	94.787399
1075.000000	94.898964
1090.000000	95.021736
1106.000000	95.150345
1120.000000	95.270546
1138.000000	95.422989
1150.000000	95.527679
1172.000000	95.716751
1180.000000	95.785004
1206.000000	96.005280
1220.000000	96.118355
1241.000000	96.286255
1250.000000	96.356155
1265.000000	96.470596
1280.000000	96.580330
1315.000000	96.824409
1320.000000	96.856979
1340.000000	96.987061
1360.000000	97.111191
1380.000000	97.229233
1400.000000	97.342064
1430.000000	97.508965
1450.000000	97.618721
1475.000000	97.758522
1500.000000	97.894165
1525.000000	98.026817
1550.000000	98.157333
1575.000000	98.286705
1600.000000	98.418015
1625.000000	98.550690
1650.000000	98.686897
1675.000000	98.826736
1700.000000	98.967606
1725.000000	99.114967
1750.000000	99.264610
1775.000000	99.420410
1800.000000	99.581047
1825.000000	99.743385
1850.000000	99.912186
1875.000000	100.083054
1900.000000	100.260818
1925.000000	100.439484
1950.000000	100.622757
1975.000000	100.808830
2000.000000	100.995857
2030.000000	101.231430
2060.000000	101.467300
2090.000000	101.705048
2120.000000	101.946426
2140.000000	102.110382
2180.000000	102.452042
2200.000000	102.636467
2240.000000	103.045654
2270.000000	103.375992
2300.000000	103.696609
2330.000000	103.993233
2360.000000	104.259995
2400.000000	104.584564
2430.000000	104.811249
2470.000000	105.098595
2500.000000	105.306168
2540.000000	105.563469
2580.000000	105.774765
2620.000000	105.931175
2650.000000	106.013397
2690.000000	106.077980
2720.000000	106.096321
2760.000000	106.083344
2800.000000	106.033363
2850.000000	105.928299
2900.000000	105.784096
2950.000000	105.609711
3000.000000	105.419083
3040.000000	105.259811
3070.000000	105.139610
3110.000000	104.980751
3150.000000	104.826508
3200.000000	104.641586
3250.000000	104.459717
3300.000000	104.283890
3350.000000	104.115189
3400.000000	103.956902
3450.000000	103.809738
3500.000000	103.673676
3550.000000	103.541252
3600.000000	103.423454
3650.000000	103.319366
3700.000000	103.220955
3750.000000	103.123108
3820.000000	102.987762
3870.000000	102.910187
3950.000000	102.890434
4000.000000	102.947861
4060.000000	103.070267
4120.000000	103.217041
4180.000000	103.372955
4250.000000	103.558212
4310.000000	103.724304
4370.000000	103.897873
4440.000000	104.120697
4500.000000	104.339920
4550.000000	104.547356
4620.000000	104.873528
4680.000000	105.190071
4750.000000	105.598755
4820.000000	106.050880
4870.000000	106.399063
4940.000000	106.929626
5000.000000	107.421967
5080.000000	108.130234
5150.000000	108.771797
5220.000000	109.455833
5300.000000	110.257614
5380.000000	111.064278
5450.000000	111.658310
5520.000000	112.063393
5600.000000	112.203285
5700.000000	111.846550
5800.000000	111.029709
5900.000000	109.980064
6000.000000	108.887634
6080.000000	108.051956
6150.000000	107.370087
6220.000000	106.745689
6300.000000	106.099777
6400.000000	105.400543
6500.000000	104.816414
6600.000000	104.346153
6700.000000	103.983673
6800.000000	103.730164
6900.000000	103.582870
7000.000000	103.543480
7100.000000	103.618126
7200.000000	103.819595
7300.000000	104.146225
7400.000000	104.601288
7500.000000	105.196838
7620.000000	106.105705
7750.000000	107.279350
7880.000000	108.414673
8000.000000	108.904106
8120.000000	108.304024
8250.000000	106.594528
8380.000000	104.509651
8500.000000	102.636398
8620.000000	100.905144
8750.000000	99.193230
8850.000000	97.991486
9000.000000	96.370735
9120.000000	95.216362
9250.000000	94.104691
9380.000000	93.100502
9500.000000	92.251259
9620.000000	91.484489
9750.000000	90.730515
9880.000000	90.056358
10000.000000	89.507294
10150.000000	88.883476
10300.000000	88.342155
10440.000000	87.916191
10600.000000	87.510239
10750.000000	87.184677
10900.000000	86.952560
11060.000000	86.769699
11200.000000	86.673576
11380.000000	86.653984
11500.000000	86.695229
11720.000000	86.883507
11800.000000	87.012177
12060.000000	87.502403
12200.000000	87.902939
12410.000000	88.663239
12500.000000	89.076309
12650.000000	89.861656
12800.000000	90.837372
13150.000000	93.920433
13200.000000	94.474876
13400.000000	96.924561
13600.000000	98.811035
13800.000000	97.944313
14000.000000	95.122063
14300.000000	91.160843
14500.000000	89.339546
14750.000000	88.298401
15000.000000	88.418915
15250.000000	88.697525
15500.000000	88.934143
15750.000000	89.430115
16000.000000	90.314117
16250.000000	91.560654
16500.000000	93.070137
16750.000000	93.782288
17000.000000	91.065109
17250.000000	87.036636
17500.000000	84.073273
17750.000000	82.516495
18000.000000	81.856812
18250.000000	81.323830
18500.000000	80.656937
18750.000000	79.844177
19000.000000	79.189842
19250.000000	78.725037
19500.000000	78.162071
19750.000000	76.867493
