* frequency_hz	amplitude
20.299999	106.367
20.600000	106.371
20.900000	106.367
21.200001	106.361
21.400000	106.357
21.799999	106.349
22.000000	106.345
22.400000	106.336
22.700001	106.330
23.000000	106.324
23.299999	106.319
23.600000	106.314
24.000000	106.306
24.299999	106.299
24.700001	106.288
25.000000	106.279
25.400000	106.267
25.799999	106.254
26.200001	106.242
26.500000	106.232
26.900000	106.217
27.200001	106.204
27.600000	106.186
28.000000	106.169
28.500000	106.148
29.000000	106.128
29.500000	106.106
30.000000	106.083
30.400000	106.063
30.700001	106.047
31.100000	106.026
31.500000	106.006
32.000000	105.980
32.500000	105.954
33.000000	105.928
33.500000	105.902
34.000000	105.876
34.500000	105.848
35.000000	105.819
35.500000	105.789
36.000000	105.760
36.500000	105.730
37.000000	105.700
37.500000	105.670
38.200001	105.627
38.700001	105.597
39.500000	105.550
40.000000	105.520
40.599998	105.484
41.200001	105.447
41.799999	105.409
42.500000	105.365
43.099998	105.328
43.700001	105.290
44.400002	105.243
45.000000	105.204
45.500000	105.174
46.200001	105.131
46.799999	105.089
47.500000	105.040
48.200001	104.998
48.700001	104.969
49.400002	104.924
50.000000	104.883
50.799999	104.828
51.500000	104.782
52.200001	104.737
53.000000	104.688
53.799999	104.637
54.500000	104.589
55.200001	104.542
56.000000	104.491
57.000000	104.426
58.000000	104.362
59.000000	104.297
60.000000	104.222
60.799999	104.176
61.500000	104.141
62.200001	104.098
63.000000	104.044
64.000000	103.981
65.000000	103.917
66.000000	103.853
67.000000	103.793
68.000000	103.732
69.000000	103.673
70.000000	103.606
71.000000	103.539
72.000000	103.486
73.000000	103.424
74.000000	103.363
75.000000	103.305
76.199997	103.231
77.500000	103.151
78.800003	103.078
80.000000	103.008
81.199997	102.937
82.500000	102.865
83.800003	102.790
85.000000	102.725
86.199997	102.657
87.500000	102.586
88.500000	102.532
90.000000	102.448
91.199997	102.383
92.500000	102.314
93.800003	102.246
95.000000	102.182
96.199997	102.119
97.500000	102.053
98.800003	101.988
100.000000	101.927
101.500000	101.850
103.000000	101.776
104.400002	101.707
106.000000	101.627
107.500000	101.555
109.000000	101.481
110.599998	101.412
112.000000	101.341
113.800003	101.264
115.000000	101.201
117.199997	101.105
118.000000	101.084
120.599998	100.932
122.000000	100.887
124.099998	100.807
125.000000	100.761
126.500000	100.705
128.000000	100.637
131.500000	100.504
132.000000	100.483
134.000000	100.404
136.000000	100.325
138.000000	100.247
140.000000	100.178
143.000000	100.060
145.000000	99.988
147.500000	99.900
150.000000	99.815
152.500000	99.728
155.000000	99.642
157.500000	99.559
160.000000	99.479
162.500000	99.397
165.000000	99.304
167.500000	99.228
170.000000	99.154
172.500000	99.080
175.000000	99.005
177.500000	98.942
180.000000	98.881
182.500000	98.823
185.000000	98.770
187.500000	98.722
190.000000	98.671
192.500000	98.623
195.000000	98.576
197.500000	98.522
200.000000	98.468
203.000000	98.401
206.000000	98.335
209.000000	98.269
212.000000	98.201
214.000000	98.154
218.000000	98.072
220.000000	98.031
224.000000	97.950
227.000000	97.891
230.000000	97.834
233.000000	97.776
236.000000	97.722
240.000000	97.649
243.000000	97.603
247.000000	97.534
250.000000	97.488
254.000000	97.425
258.000000	97.364
262.000000	97.308
265.000000	97.265
269.000000	97.211
272.000000	97.173
276.000000	97.122
280.000000	97.074
285.000000	97.013
290.000000	96.956
295.000000	96.902
300.000000	96.848
304.000000	96.812
307.000000	96.783
311.000000	96.749
315.000000	96.713
320.000000	96.669
325.000000	96.629
330.000000	96.592
335.000000	96.558
340.000000	96.525
345.000000	96.494
350.000000	96.464
355.000000	96.436
360.000000	96.413
365.000000	96.388
370.000000	96.365
375.000000	96.345
382.000000	96.320
387.000000	96.302
395.000000	96.277
400.000000	96.262
406.000000	96.247
412.000000	96.234
418.000000	96.223
425.000000	96.213
431.000000	96.206
437.000000	96.199
444.000000	96.197
450.000000	96.195
455.000000	96.195
462.000000	96.194
468.000000	96.197
475.000000	96.197
482.000000	96.198
487.000000	96.201
494.000000	96.206
500.000000	96.210
508.000000	96.220
515.000000	96.228
522.000000	96.234
530.000000	96.245
538.000000	96.253
545.000000	96.261
552.000000	96.271
560.000000	96.280
570.000000	96.290
580.000000	96.301
590.000000	96.311
600.000000	96.323
608.000000	96.335
615.000000	96.340
622.000000	96.346
630.000000	96.354
640.000000	96.363
650.000000	96.373
660.000000	96.379
670.000000	96.390
680.000000	96.393
690.000000	96.404
700.000000	96.408
710.000000	96.417
720.000000	96.423
730.000000	96.431
740.000000	96.441
750.000000	96.449
762.000000	96.463
775.000000	96.482
788.000000	96.499
800.000000	96.523
812.000000	96.546
825.000000	96.574
838.000000	96.606
850.000000	96.642
862.000000	96.680
875.000000	96.725
885.000000	96.764
900.000000	96.826
912.000000	96.880
925.000000	96.947
938.000000	97.016
950.000000	97.087
962.000000	97.162
975.000000	97.250
988.000000	97.342
1000.000000	97.432
1015.000000	97.547
1030.000000	97.666
1044.000000	97.779
1060.000000	97.910
1075.000000	98.033
1090.000000	98.157
1106.000000	98.287
1120.000000	98.399
1138.000000	98.538
1150.000000	98.629
1172.000000	98.790
1180.000000	98.848
1206.000000	99.022
1220.000000	99.110
1241.000000	99.233
1250.000000	99.283
1265.000000	99.365
1280.000000	99.439
1315.000000	99.598
1320.000000	99.621
1340.000000	99.702
1360.000000	99.775
1380.000000	99.845
1400.000000	99.908
1430.000000	99.997
1450.000000	100.054
1475.000000	100.121
1500.000000	100.182
1525.000000	100.247
1550.000000	100.310
1575.000000	100.371
1600.000000	100.431
1625.000000	100.495
1650.000000	100.561
1675.000000	100.627
1700.000000	100.694
1725.000000	100.763
1750.000000	100.832
1775.000000	100.902
1800.000000	100.970
1825.000000	101.039
1850.000000	101.105
1875.000000	101.170
1900.000000	101.231
1925.000000	101.288
1950.000000	101.339
1975.000000	101.385
2000.000000	101.421
2030.000000	101.458
2060.000000	101.482
2090.000000	101.493
2120.000000	101.490
2140.000000	101.480
2180.000000	101.444
2200.000000	101.417
2240.000000	101.349
2270.000000	101.288
2300.000000	101.217
2330.000000	101.140
2360.000000	101.062
2400.000000	100.949
2430.000000	100.866
2470.000000	100.755
2500.000000	100.675
2540.000000	100.576
2580.000000	100.487
2620.000000	100.412
2650.000000	100.366
2690.000000	100.316
2720.000000	100.291
2760.000000	100.270
2800.000000	100.270
2850.000000	100.295
2900.000000	100.356
2950.000000	100.455
3000.000000	100.598
3040.000000	100.742
3070.000000	100.866
3110.000000	101.041
3150.000000	101.222
3200.000000	101.441
3250.000000	101.629
3300.000000	101.772
3350.000000	101.860
3400.000000	101.890
3450.000000	101.867
3500.000000	101.796
3550.000000	101.689
3600.000000	101.568
3650.000000	101.442
3700.000000	101.327
3750.000000	101.233
3820.000000	101.144
3870.000000	101.119
3950.000000	101.145
4000.000000	101.197
4060.000000	101.297
4120.000000	101.429
4180.000000	101.584
4250.000000	101.786
4310.000000	101.964
4370.000000	102.137
4440.000000	102.319
4500.000000	102.450
4550.000000	102.531
4620.000000	102.612
4680.000000	102.645
4750.000000	102.650
4820.000000	102.621
4870.000000	102.586
4940.000000	102.515
5000.000000	102.441
5080.000000	102.325
5150.000000	102.214
5220.000000	102.097
5300.000000	101.965
5380.000000	101.839
5450.000000	101.736
5520.000000	101.643
5600.000000	101.554
5700.000000	101.466
5800.000000	101.423
5900.000000	101.421
6000.000000	101.467
6080.000000	101.535
6150.000000	101.617
6220.000000	101.719
6300.000000	101.855
6400.000000	102.046
6500.000000	102.259
6600.000000	102.480
6700.000000	102.693
6800.000000	102.887
6900.000000	103.049
7000.000000	103.162
7100.000000	103.225
7200.000000	103.243
7300.000000	103.221
7400.000000	103.154
7500.000000	103.050
7620.000000	102.898
7750.000000	102.731
7880.000000	102.577
8000.000000	102.448
8120.000000	102.321
8250.000000	102.175
8380.000000	102.001
8500.000000	101.798
8620.000000	101.513
8750.000000	101.078
8850.000000	100.657
9000.000000	99.915
9120.000000	99.284
9250.000000	98.608
9380.000000	97.988
9500.000000	97.471
9620.000000	97.029
9750.000000	96.653
9880.000000	96.362
10000.000000	96.172
10150.000000	96.035
10300.000000	95.972
10440.000000	95.958
10600.000000	95.966
10750.000000	95.965
10900.000000	95.961
11060.000000	95.954
11200.000000	95.996
11380.000000	96.101
11500.000000	96.180
11720.000000	96.190
11800.000000	96.130
12060.000000	95.762
12200.000000	95.449
12410.000000	94.994
12500.000000	94.803
12650.000000	94.477
12800.000000	94.343
13150.000000	94.813
13200.000000	94.944
13400.000000	95.558
13600.000000	96.329
13800.000000	97.147
14000.000000	97.887
14300.000000	98.617
14500.000000	98.861
14750.000000	98.991
15000.000000	99.016
15250.000000	98.874
15500.000000	98.436
15750.000000	97.613
16000.000000	96.603
16250.000000	95.707
16500.000000	95.181
16750.000000	95.166
17000.000000	95.666
17250.000000	96.363
17500.000000	96.496
17750.000000	95.674
18000.000000	94.224
18250.000000	93.184
18500.000000	93.997
18750.000000	91.144
19000.000000	88.736
19250.000000	85.615
19500.000000	82.220
19750.000000	78.003
