* frequency_hz	amplitude
20.299999	107.598251
20.600000	107.555267
20.900000	107.504692
21.200001	107.454094
21.400000	107.421371
21.799999	107.356102
22.000000	107.322205
22.400000	107.250443
22.700001	107.194702
23.000000	107.140854
23.299999	107.092308
23.600000	107.050911
24.000000	107.005219
24.299999	106.974289
24.700001	106.932007
25.000000	106.897850
25.400000	106.849350
25.799999	106.797928
26.200001	106.741035
26.500000	106.692383
26.900000	106.619850
27.200001	106.563492
27.600000	106.496162
28.000000	106.446945
28.500000	106.410728
29.000000	106.378090
29.500000	106.321243
30.000000	106.234535
30.400000	106.155586
30.700001	106.098755
31.100000	106.031418
31.500000	105.973213
32.000000	105.906525
32.500000	105.840118
33.000000	105.771935
33.500000	105.702415
34.000000	105.632050
34.500000	105.562164
35.000000	105.494614
35.500000	105.429726
36.000000	105.365593
36.500000	105.300667
37.000000	105.235435
37.500000	105.170387
38.200001	105.075470
38.700001	105.003540
39.500000	104.896530
40.000000	104.840561
40.599998	104.768654
41.200001	104.678024
41.799999	104.591415
42.500000	104.531555
43.099998	104.477150
43.700001	104.363091
44.400002	104.198196
45.000000	104.119720
45.500000	104.099930
46.200001	104.062836
46.799999	103.993500
47.500000	103.920578
48.200001	103.883537
48.700001	103.856407
49.400002	103.797607
50.000000	103.749344
50.799999	103.721802
51.500000	103.678566
52.200001	103.538208
53.000000	103.347580
53.799999	103.315147
54.500000	103.349525
55.200001	103.312538
56.000000	103.217514
57.000000	103.115219
58.000000	103.007942
59.000000	102.927086
60.000000	102.836380
60.799999	102.759674
61.500000	102.698517
62.200001	102.639694
63.000000	102.573227
64.000000	102.488304
65.000000	102.402145
66.000000	102.314552
67.000000	102.236862
68.000000	102.159004
69.000000	102.082741
70.000000	102.009422
71.000000	101.931877
72.000000	101.856239
73.000000	101.783012
74.000000	101.709969
75.000000	101.646004
76.199997	101.575531
77.500000	101.483139
78.800003	101.407776
80.000000	101.327805
81.199997	101.256248
82.500000	101.171768
83.800003	101.099678
85.000000	101.028198
86.199997	100.954475
87.500000	100.876503
88.500000	100.823837
90.000000	100.746170
91.199997	100.686523
92.500000	100.624100
93.800003	100.559250
95.000000	100.498657
96.199997	100.443504
97.500000	100.379227
98.800003	100.318985
100.000000	100.264717
101.500000	100.195084
103.000000	100.124374
104.400002	100.055565
106.000000	99.987526
107.500000	99.927872
109.000000	99.860405
110.599998	99.795120
112.000000	99.739990
113.800003	99.667885
115.000000	99.617607
117.199997	99.532166
118.000000	99.500000
120.599998	99.388168
122.000000	99.362030
124.099998	99.280609
125.000000	99.250755
126.500000	99.202667
128.000000	99.152435
131.500000	99.068092
132.000000	99.056480
134.000000	99.013298
136.000000	98.966866
138.000000	98.907013
140.000000	98.858437
143.000000	98.782272
145.000000	98.728333
147.500000	98.661667
150.000000	98.603302
152.500000	98.543175
155.000000	98.482559
157.500000	98.421181
160.000000	98.364899
162.500000	98.313133
165.000000	98.259308
167.500000	98.211205
170.000000	98.164261
172.500000	98.117661
175.000000	98.079453
177.500000	98.035370
180.000000	98.001106
182.500000	97.947449
185.000000	97.910782
187.500000	97.868484
190.000000	97.834099
192.500000	97.797714
195.000000	97.768021
197.500000	97.754570
200.000000	97.740829
203.000000	97.736382
206.000000	97.729233
209.000000	97.715508
212.000000	97.685661
214.000000	97.661827
218.000000	97.623039
220.000000	97.607628
224.000000	97.563644
227.000000	97.534302
230.000000	97.512428
233.000000	97.488220
236.000000	97.465057
240.000000	97.428825
243.000000	97.422081
247.000000	97.393677
250.000000	97.379097
254.000000	97.356392
258.000000	97.334145
262.000000	97.313812
265.000000	97.304245
269.000000	97.286652
272.000000	97.276505
276.000000	97.263092
280.000000	97.262802
285.000000	97.263557
290.000000	97.272049
295.000000	97.270096
300.000000	97.270538
304.000000	97.270523
307.000000	97.273460
311.000000	97.266663
315.000000	97.263695
320.000000	97.264908
325.000000	97.267982
330.000000	97.268532
335.000000	97.274261
340.000000	97.283203
345.000000	97.293304
350.000000	97.300873
355.000000	97.309395
360.000000	97.317657
365.000000	97.326904
370.000000	97.336884
375.000000	97.347153
382.000000	97.362915
387.000000	97.373131
395.000000	97.395103
400.000000	97.407761
406.000000	97.425453
412.000000	97.441071
418.000000	97.458824
425.000000	97.477089
431.000000	97.496277
437.000000	97.512436
444.000000	97.530220
450.000000	97.549934
455.000000	97.560822
462.000000	97.580719
468.000000	97.598198
475.000000	97.618248
482.000000	97.636375
487.000000	97.650604
494.000000	97.669022
500.000000	97.686111
508.000000	97.706116
515.000000	97.722702
522.000000	97.737885
530.000000	97.754539
538.000000	97.770348
545.000000	97.780930
552.000000	97.793015
560.000000	97.810089
570.000000	97.823715
580.000000	97.833755
590.000000	97.840225
600.000000	97.843048
608.000000	97.831512
615.000000	97.823547
622.000000	97.812134
630.000000	97.792542
640.000000	97.767700
650.000000	97.740097
660.000000	97.709305
670.000000	97.686234
680.000000	97.665916
690.000000	97.644646
700.000000	97.627701
710.000000	97.610062
720.000000	97.602036
730.000000	97.586311
740.000000	97.575729
750.000000	97.566010
762.000000	97.553482
775.000000	97.544037
788.000000	97.534393
800.000000	97.532318
812.000000	97.530800
825.000000	97.531517
838.000000	97.536850
850.000000	97.545273
862.000000	97.558014
875.000000	97.574051
885.000000	97.587769
900.000000	97.615738
912.000000	97.638306
925.000000	97.667191
938.000000	97.700302
950.000000	97.736633
962.000000	97.775909
975.000000	97.823860
988.000000	97.874756
1000.000000	97.926743
1015.000000	97.995712
1030.000000	98.066895
1044.000000	98.137878
1060.000000	98.221718
1075.000000	98.301987
1090.000000	98.385483
1106.000000	98.478088
1120.000000	98.557907
1138.000000	98.658684
1150.000000	98.725876
1172.000000	98.848793
1180.000000	98.891716
1206.000000	99.030777
1220.000000	99.099518
1241.000000	99.201843
1250.000000	99.240807
1265.000000	99.308548
1280.000000	99.371346
1315.000000	99.504753
1320.000000	99.523949
1340.000000	99.592522
1360.000000	99.656410
1380.000000	99.715973
1400.000000	99.780624
1430.000000	99.866745
1450.000000	99.920959
1475.000000	99.991859
1500.000000	100.055763
1525.000000	100.125259
1550.000000	100.195686
1575.000000	100.267693
1600.000000	100.341263
1625.000000	100.416176
1650.000000	100.495857
1675.000000	100.580032
1700.000000	100.665352
1725.000000	100.756691
1750.000000	100.851463
1775.000000	100.949883
1800.000000	101.050598
1825.000000	101.153030
1850.000000	101.259857
1875.000000	101.366867
1900.000000	101.480919
1925.000000	101.593735
1950.000000	101.706589
1975.000000	101.825089
2000.000000	101.942162
2030.000000	102.080399
2060.000000	102.214951
2090.000000	102.347641
2120.000000	102.485153
2140.000000	102.581177
2180.000000	102.785774
2200.000000	102.897141
2240.000000	103.116669
2270.000000	103.255791
2300.000000	103.365700
2330.000000	103.448311
2360.000000	103.508240
2400.000000	103.559372
2430.000000	103.576096
2470.000000	103.574265
2500.000000	103.555130
2540.000000	103.520905
2580.000000	103.464897
2620.000000	103.382515
2650.000000	103.305908
2690.000000	103.209145
2720.000000	103.159050
2760.000000	103.139420
2800.000000	103.158058
2850.000000	103.166595
2900.000000	103.113838
2950.000000	103.004944
3000.000000	102.854607
3040.000000	102.717636
3070.000000	102.610542
3110.000000	102.459808
3150.000000	102.300980
3200.000000	102.086266
3250.000000	101.857346
3300.000000	101.610329
3350.000000	101.333015
3400.000000	101.050034
3450.000000	100.795448
3500.000000	100.591003
3550.000000	100.482788
3600.000000	100.536041
3650.000000	100.760231
3700.000000	101.106270
3750.000000	101.501617
3820.000000	102.027985
3870.000000	102.352798
3950.000000	102.779793
4000.000000	102.998535
4060.000000	103.221413
4120.000000	103.410316
4180.000000	103.565598
4250.000000	103.695877
4310.000000	103.740692
4370.000000	103.702370
4440.000000	103.509567
4500.000000	103.189034
4550.000000	102.815071
4620.000000	102.141754
4680.000000	101.486717
4750.000000	100.726883
4820.000000	100.084961
4870.000000	99.731781
4940.000000	99.384033
5000.000000	99.189438
5080.000000	98.998947
5150.000000	98.850716
5220.000000	98.695168
5300.000000	98.505684
5380.000000	98.295387
5450.000000	98.102486
5520.000000	97.902237
5600.000000	97.684708
5700.000000	97.440033
5800.000000	97.236984
5900.000000	97.108749
6000.000000	97.059418
6080.000000	97.087715
6150.000000	97.160004
6220.000000	97.272202
6300.000000	97.439728
6400.000000	97.713470
6500.000000	98.006172
6600.000000	98.295647
6700.000000	98.594971
6800.000000	99.086693
6900.000000	99.707825
7000.000000	100.154968
7100.000000	100.521255
7200.000000	100.984154
7300.000000	101.382683
7400.000000	101.700089
7500.000000	102.044106
7620.000000	102.589523
7750.000000	103.143295
7880.000000	103.518578
8000.000000	103.667328
8120.000000	103.632362
8250.000000	103.453094
8380.000000	103.208954
8500.000000	102.981354
8620.000000	102.771187
8750.000000	102.577942
8850.000000	102.373901
9000.000000	101.997482
9120.000000	101.606766
9250.000000	101.037888
9380.000000	100.319725
9500.000000	99.493500
9620.000000	98.572479
9750.000000	97.510468
9880.000000	96.451752
10000.000000	95.504654
10150.000000	94.407166
10300.000000	93.421387
10440.000000	92.608505
10600.000000	91.822922
10750.000000	91.205261
10900.000000	90.679626
11060.000000	90.266739
11200.000000	89.973557
11380.000000	89.719521
11500.000000	89.591743
11720.000000	89.666481
11800.000000	89.749344
12060.000000	90.222183
12200.000000	90.569969
12410.000000	91.298058
12500.000000	91.687508
12650.000000	92.419388
12800.000000	93.207367
13150.000000	94.917419
13200.000000	95.125977
13400.000000	96.013504
13600.000000	96.882294
13800.000000	97.724747
14000.000000	98.403549
14300.000000	98.810585
14500.000000	98.692619
14750.000000	98.370941
15000.000000	98.229294
15250.000000	98.652802
15500.000000	99.740036
15750.000000	101.266769
16000.000000	101.515320
16250.000000	99.549683
16500.000000	98.018829
16750.000000	97.102478
17000.000000	95.500610
17250.000000	93.110329
17500.000000	90.533798
17750.000000	88.333168
18000.000000	86.684753
18250.000000	85.662460
18500.000000	85.265976
18750.000000	85.523460
19000.000000	86.239655
19250.000000	86.880875
19500.000000	86.655106
19750.000000	84.977005
