* frequency_hz	amplitude
20.299999	104.198074
20.600000	104.202026
20.900000	104.195503
21.200001	104.184174
21.400000	104.177399
21.799999	104.176712
22.000000	104.186523
22.400000	104.226715
22.700001	104.266785
23.000000	104.302620
23.299999	104.322350
23.600000	104.318359
24.000000	104.276154
24.299999	104.227081
24.700001	104.159698
25.000000	104.120598
25.400000	104.091583
25.799999	104.083221
26.200001	104.080513
26.500000	104.073792
26.900000	104.053757
27.200001	104.031311
27.600000	103.997841
28.000000	103.968079
28.500000	103.943741
29.000000	103.930000
29.500000	103.914452
30.000000	103.887459
30.400000	103.859009
30.700001	103.836975
31.100000	103.810074
31.500000	103.786438
32.000000	103.757103
32.500000	103.723381
33.000000	103.687012
33.500000	103.653412
34.000000	103.624687
34.500000	103.597595
35.000000	103.567245
35.500000	103.531395
36.000000	103.491524
36.500000	103.451263
37.000000	103.413567
37.500000	103.378235
38.200001	103.327415
38.700001	103.289024
39.500000	103.229713
40.000000	103.193443
40.599998	103.145332
41.200001	103.092133
41.799999	103.039078
42.500000	102.981255
43.099998	102.936745
43.700001	102.899391
44.400002	102.857338
45.000000	102.809128
45.500000	102.759712
46.200001	102.690681
46.799999	102.638748
47.500000	102.577896
48.200001	102.512466
48.700001	102.467789
49.400002	102.410507
50.000000	102.361557
50.799999	102.292107
51.500000	102.228539
52.200001	102.163132
53.000000	102.088737
53.799999	102.019753
54.500000	101.964424
55.200001	101.906471
56.000000	101.828598
57.000000	101.735641
58.000000	101.655899
59.000000	101.558205
60.000000	101.477516
60.799999	101.413132
61.500000	101.340370
62.200001	101.272560
63.000000	101.208878
64.000000	101.117165
65.000000	101.024582
66.000000	100.936707
67.000000	100.843605
68.000000	100.757553
69.000000	100.664734
70.000000	100.577118
71.000000	100.485519
72.000000	100.387230
73.000000	100.300041
74.000000	100.207619
75.000000	100.114670
76.199997	100.007263
77.500000	99.892303
78.800003	99.773331
80.000000	99.661163
81.199997	99.551979
82.500000	99.436813
83.800003	99.320328
85.000000	99.212410
86.199997	99.103821
87.500000	98.984764
88.500000	98.895988
90.000000	98.765411
91.199997	98.658966
92.500000	98.545166
93.800003	98.442062
95.000000	98.351791
96.199997	98.265930
97.500000	98.161949
98.800003	98.054588
100.000000	97.951202
101.500000	97.834358
103.000000	97.706062
104.400002	97.594696
106.000000	97.471153
107.500000	97.344345
109.000000	97.234428
110.599998	97.101425
112.000000	96.990013
113.800003	96.861115
115.000000	96.766861
117.199997	96.598045
118.000000	96.534721
120.599998	96.344116
122.000000	96.255829
124.099998	96.092522
125.000000	96.035378
126.500000	95.922386
128.000000	95.830490
131.500000	95.598541
132.000000	95.562859
134.000000	95.413101
136.000000	95.242554
138.000000	95.179153
140.000000	95.059883
143.000000	94.875648
145.000000	94.765854
147.500000	94.640503
150.000000	94.484055
152.500000	94.379356
155.000000	94.220268
157.500000	94.115097
160.000000	93.970245
162.500000	93.870750
165.000000	93.779190
167.500000	93.669609
170.000000	93.605850
172.500000	93.542969
175.000000	93.463600
177.500000	93.377464
180.000000	93.258072
182.500000	93.206169
185.000000	93.135262
187.500000	93.048416
190.000000	92.979881
192.500000	92.900238
195.000000	92.841629
197.500000	92.773994
200.000000	92.709267
203.000000	92.633690
206.000000	92.557861
209.000000	92.480522
212.000000	92.417465
214.000000	92.374306
218.000000	92.300140
220.000000	92.257301
224.000000	92.189941
227.000000	92.135277
230.000000	92.093994
233.000000	92.051376
236.000000	92.001297
240.000000	91.930298
243.000000	91.904526
247.000000	91.861465
250.000000	91.827934
254.000000	91.781761
258.000000	91.749023
262.000000	91.710175
265.000000	91.684967
269.000000	91.647064
272.000000	91.619850
276.000000	91.590126
280.000000	91.574074
285.000000	91.541779
290.000000	91.518883
295.000000	91.500290
300.000000	91.473083
304.000000	91.456039
307.000000	91.445480
311.000000	91.429596
315.000000	91.413910
320.000000	91.390579
325.000000	91.375015
330.000000	91.367165
335.000000	91.346260
340.000000	91.332993
345.000000	91.320503
350.000000	91.308556
355.000000	91.296707
360.000000	91.291176
365.000000	91.278992
370.000000	91.271385
375.000000	91.263206
382.000000	91.247032
387.000000	91.237915
395.000000	91.231140
400.000000	91.224411
406.000000	91.221741
412.000000	91.210388
418.000000	91.200684
425.000000	91.197243
431.000000	91.195305
437.000000	91.189278
444.000000	91.178024
450.000000	91.172058
455.000000	91.167557
462.000000	91.166870
468.000000	91.155960
475.000000	91.161499
482.000000	91.152031
487.000000	91.148590
494.000000	91.144440
500.000000	91.135719
508.000000	91.137917
515.000000	91.135170
522.000000	91.127045
530.000000	91.127022
538.000000	91.119499
545.000000	91.116249
552.000000	91.116425
560.000000	91.109856
570.000000	91.112068
580.000000	91.107925
590.000000	91.107658
600.000000	91.109787
608.000000	91.099983
615.000000	91.094131
622.000000	91.089462
630.000000	91.085724
640.000000	91.076950
650.000000	91.068909
660.000000	91.056267
670.000000	91.031906
680.000000	91.020439
690.000000	91.003090
700.000000	90.990234
710.000000	90.976112
720.000000	90.956413
730.000000	90.943001
740.000000	90.933624
750.000000	90.919144
762.000000	90.914230
775.000000	90.907455
788.000000	90.904587
800.000000	90.908577
812.000000	90.916283
825.000000	90.932121
838.000000	90.951195
850.000000	90.978180
862.000000	91.004059
875.000000	91.045227
885.000000	91.079750
900.000000	91.131813
912.000000	91.181686
925.000000	91.244614
938.000000	91.308601
950.000000	91.376076
962.000000	91.447556
975.000000	91.526726
988.000000	91.613968
1000.000000	91.698639
1015.000000	91.807709
1030.000000	91.924126
1044.000000	92.033791
1060.000000	92.163696
1075.000000	92.292702
1090.000000	92.417412
1106.000000	92.552643
1120.000000	92.674675
1138.000000	92.833389
1150.000000	92.931999
1172.000000	93.112213
1180.000000	93.177597
1206.000000	93.383636
1220.000000	93.487305
1241.000000	93.644684
1250.000000	93.705765
1265.000000	93.807297
1280.000000	93.907410
1315.000000	94.125809
1320.000000	94.156334
1340.000000	94.267380
1360.000000	94.374344
1380.000000	94.478790
1400.000000	94.578873
1430.000000	94.722832
1450.000000	94.812187
1475.000000	94.922562
1500.000000	95.031235
1525.000000	95.135529
1550.000000	95.243637
1575.000000	95.348465
1600.000000	95.451279
1625.000000	95.560402
1650.000000	95.667526
1675.000000	95.775040
1700.000000	95.887627
1725.000000	96.001534
1750.000000	96.116234
1775.000000	96.234444
1800.000000	96.355118
1825.000000	96.473785
1850.000000	96.597504
1875.000000	96.725739
1900.000000	96.851898
1925.000000	96.985138
1950.000000	97.111160
1975.000000	97.235413
2000.000000	97.353500
2030.000000	97.480644
2060.000000	97.599442
2090.000000	97.708923
2120.000000	97.819847
2140.000000	97.897278
2180.000000	98.068695
2200.000000	98.161087
2240.000000	98.354218
2270.000000	98.506577
2300.000000	98.669083
2330.000000	98.833107
2360.000000	99.001671
2400.000000	99.229507
2430.000000	99.399796
2470.000000	99.619804
2500.000000	99.784943
2540.000000	99.983574
2580.000000	100.175148
2620.000000	100.347771
2650.000000	100.466095
2690.000000	100.617805
2720.000000	100.735031
2760.000000	100.908768
2800.000000	101.119987
2850.000000	101.380455
2900.000000	101.562485
2950.000000	101.633461
3000.000000	101.621323
3040.000000	101.573044
3070.000000	101.525078
3110.000000	101.448517
3150.000000	101.364037
3200.000000	101.253624
3250.000000	101.133331
3300.000000	101.000687
3350.000000	100.864349
3400.000000	100.725182
3450.000000	100.585205
3500.000000	100.444778
3550.000000	100.306160
3600.000000	100.169281
3650.000000	100.038986
3700.000000	99.928444
3750.000000	99.829666
3820.000000	99.711555
3870.000000	99.629951
3950.000000	99.499588
4000.000000	99.425491
4060.000000	99.352219
4120.000000	99.291733
4180.000000	99.248810
4250.000000	99.219086
4310.000000	99.219917
4370.000000	99.249069
4440.000000	99.310791
4500.000000	99.380463
4550.000000	99.446716
4620.000000	99.544312
4680.000000	99.631264
4750.000000	99.729584
4820.000000	99.826012
4870.000000	99.892731
4940.000000	99.982391
5000.000000	100.059372
5080.000000	100.155693
5150.000000	100.231995
5220.000000	100.296188
5300.000000	100.354057
5380.000000	100.398453
5450.000000	100.428352
5520.000000	100.453445
5600.000000	100.487366
5700.000000	100.542030
5800.000000	100.619705
5900.000000	100.691795
6000.000000	100.701065
6080.000000	100.602425
6150.000000	100.408913
6220.000000	100.123489
6300.000000	99.713417
6400.000000	99.164276
6500.000000	98.658897
6600.000000	98.263519
6700.000000	97.995880
6800.000000	97.860359
6900.000000	97.837196
7000.000000	97.928093
7100.000000	98.120560
7200.000000	98.414429
7300.000000	98.804527
7400.000000	99.291878
7500.000000	99.864937
7620.000000	100.611137
7750.000000	101.389565
7880.000000	101.964172
8000.000000	102.002441
8120.000000	101.469498
8250.000000	100.394630
8380.000000	99.099121
8500.000000	98.226181
8620.000000	97.875725
8750.000000	96.834923
8850.000000	95.927032
9000.000000	94.742180
9120.000000	93.950981
9250.000000	93.227829
9380.000000	92.634018
9500.000000	92.187759
9620.000000	91.849419
9750.000000	91.604004
9880.000000	91.387238
10000.000000	91.294037
10150.000000	91.265434
10300.000000	91.319832
10440.000000	91.410141
10600.000000	91.564873
10750.000000	91.690125
10900.000000	91.783943
11060.000000	91.838524
11200.000000	91.796600
11380.000000	91.639671
11500.000000	91.453484
11720.000000	91.011993
11800.000000	90.845047
12060.000000	90.422462
12200.000000	90.313324
12410.000000	90.347000
12500.000000	90.445992
12650.000000	90.690041
12800.000000	91.049835
13150.000000	92.151665
13200.000000	92.324692
13400.000000	93.016418
13600.000000	93.660484
13800.000000	94.144455
14000.000000	94.414459
14300.000000	94.467873
14500.000000	94.363930
14750.000000	94.014877
15000.000000	93.349289
15250.000000	92.392334
15500.000000	91.363007
15750.000000	90.543503
16000.000000	90.174866
16250.000000	90.261688
16500.000000	90.469543
16750.000000	90.496017
17000.000000	90.471069
17250.000000	90.425362
17500.000000	90.087982
17750.000000	89.339661
18000.000000	88.366776
18250.000000	87.294060
18500.000000	86.050385
18750.000000	84.487320
19000.000000	82.523987
19250.000000	80.259125
19500.000000	78.237732
19750.000000	76.558449
