* frequency_hz	amplitude
20.299999	107.643196
20.600000	107.715775
20.900000	107.782227
21.200001	107.849861
21.400000	107.896820
21.799999	107.992188
22.000000	108.038101
22.400000	108.120956
22.700001	108.172989
23.000000	108.218910
23.299999	108.263985
23.600000	108.313560
24.000000	108.389450
24.299999	108.447662
24.700001	108.512314
25.000000	108.544861
25.400000	108.573204
25.799999	108.610931
26.200001	108.684631
26.500000	108.762985
26.900000	108.867928
27.200001	108.920639
27.600000	108.931778
28.000000	108.887436
28.500000	108.836288
29.000000	108.889252
29.500000	109.035080
30.000000	109.164200
30.400000	109.209579
30.700001	109.216721
31.100000	109.220490
31.500000	109.247391
32.000000	109.313507
32.500000	109.372192
33.000000	109.393089
33.500000	109.397537
34.000000	109.420906
34.500000	109.461288
35.000000	109.487953
35.500000	109.489517
36.000000	109.490608
36.500000	109.518036
37.000000	109.564133
37.500000	109.596451
38.200001	109.596436
38.700001	109.596863
39.500000	109.645645
40.000000	109.669205
40.599998	109.658630
41.200001	109.651802
41.799999	109.692879
42.500000	109.747223
43.099998	109.741623
43.700001	109.717224
44.400002	109.720482
45.000000	109.733894
45.500000	109.739487
46.200001	109.747757
46.799999	109.748482
47.500000	109.734856
48.200001	109.750107
48.700001	109.777588
49.400002	109.770370
50.000000	109.722900
50.799999	109.716583
51.500000	109.753204
52.200001	109.731308
53.000000	109.690277
53.799999	109.719482
54.500000	109.728516
55.200001	109.689606
56.000000	109.658142
57.000000	109.667999
58.000000	109.659004
59.000000	109.629311
60.000000	109.600967
60.799999	109.589996
61.500000	109.587715
62.200001	109.574532
63.000000	109.539398
64.000000	109.505638
65.000000	109.498245
66.000000	109.479675
67.000000	109.446602
68.000000	109.411926
69.000000	109.381073
70.000000	109.356018
71.000000	109.332550
72.000000	109.306831
73.000000	109.272346
74.000000	109.237854
75.000000	109.202682
76.199997	109.158707
77.500000	109.120415
78.800003	109.084900
80.000000	109.052658
81.199997	109.008316
82.500000	108.963387
83.800003	108.909737
85.000000	108.865997
86.199997	108.826309
87.500000	108.780518
88.500000	108.745041
90.000000	108.691727
91.199997	108.647224
92.500000	108.600616
93.800003	108.553383
95.000000	108.509689
96.199997	108.463394
97.500000	108.413269
98.800003	108.367256
100.000000	108.323700
101.500000	108.272354
103.000000	108.212822
104.400002	108.168411
106.000000	108.115799
107.500000	108.061974
109.000000	108.003464
110.599998	107.950890
112.000000	107.895798
113.800003	107.824677
115.000000	107.779831
117.199997	107.703484
118.000000	107.674347
120.599998	107.576744
122.000000	107.530182
124.099998	107.452950
125.000000	107.419785
126.500000	107.367783
128.000000	107.315643
131.500000	107.190002
132.000000	107.171890
134.000000	107.099319
136.000000	107.030380
138.000000	106.958496
140.000000	106.886673
143.000000	106.782104
145.000000	106.714676
147.500000	106.625252
150.000000	106.540817
152.500000	106.458435
155.000000	106.372391
157.500000	106.290123
160.000000	106.206520
162.500000	106.125870
165.000000	106.045425
167.500000	105.963707
170.000000	105.883461
172.500000	105.807312
175.000000	105.728378
177.500000	105.649460
180.000000	105.563393
182.500000	105.497879
185.000000	105.418457
187.500000	105.341904
190.000000	105.268219
192.500000	105.196167
195.000000	105.122368
197.500000	105.049194
200.000000	104.976540
203.000000	104.895477
206.000000	104.814514
209.000000	104.732368
212.000000	104.655724
214.000000	104.606270
218.000000	104.503456
220.000000	104.449295
224.000000	104.349037
227.000000	104.270828
230.000000	104.191376
233.000000	104.117081
236.000000	104.042114
240.000000	103.950165
243.000000	103.878387
247.000000	103.786583
250.000000	103.718346
254.000000	103.629539
258.000000	103.547600
262.000000	103.468094
265.000000	103.410088
269.000000	103.335800
272.000000	103.279808
276.000000	103.199921
280.000000	103.115189
285.000000	103.011436
290.000000	102.909805
295.000000	102.803795
300.000000	102.710899
304.000000	102.621368
307.000000	102.560196
311.000000	102.481148
315.000000	102.404320
320.000000	102.311729
325.000000	102.223534
330.000000	102.162926
335.000000	102.120438
340.000000	102.081070
345.000000	102.035759
350.000000	101.975189
355.000000	101.902306
360.000000	101.825829
365.000000	101.745628
370.000000	101.668816
375.000000	101.591766
382.000000	101.488235
387.000000	101.413681
395.000000	101.302208
400.000000	101.236374
406.000000	101.157455
412.000000	101.078011
418.000000	100.998932
425.000000	100.915947
431.000000	100.843628
437.000000	100.769753
444.000000	100.691551
450.000000	100.622871
455.000000	100.569756
462.000000	100.491699
468.000000	100.430855
475.000000	100.357567
482.000000	100.291145
487.000000	100.238365
494.000000	100.169586
500.000000	100.115173
508.000000	100.042435
515.000000	99.977097
522.000000	99.914154
530.000000	99.845955
538.000000	99.779274
545.000000	99.722626
552.000000	99.663200
560.000000	99.601822
570.000000	99.530830
580.000000	99.451942
590.000000	99.379395
600.000000	99.320297
608.000000	99.261490
615.000000	99.212280
622.000000	99.165680
630.000000	99.121300
640.000000	99.062904
650.000000	98.999153
660.000000	98.952972
670.000000	98.896118
680.000000	98.843872
690.000000	98.792236
700.000000	98.747513
710.000000	98.707855
720.000000	98.660728
730.000000	98.619202
740.000000	98.585541
750.000000	98.553162
762.000000	98.512222
775.000000	98.472153
788.000000	98.442131
800.000000	98.413055
812.000000	98.389320
825.000000	98.371216
838.000000	98.354874
850.000000	98.339920
862.000000	98.335014
875.000000	98.339035
885.000000	98.345245
900.000000	98.364052
912.000000	98.389267
925.000000	98.421364
938.000000	98.457779
950.000000	98.489616
962.000000	98.529076
975.000000	98.570663
988.000000	98.619690
1000.000000	98.667099
1015.000000	98.732941
1030.000000	98.803253
1044.000000	98.873489
1060.000000	98.959007
1075.000000	99.040474
1090.000000	99.126289
1106.000000	99.218170
1120.000000	99.300537
1138.000000	99.407532
1150.000000	99.478554
1172.000000	99.607010
1180.000000	99.653122
1206.000000	99.796051
1220.000000	99.873276
1241.000000	99.979187
1250.000000	100.024048
1265.000000	100.095551
1280.000000	100.164101
1315.000000	100.311264
1320.000000	100.334366
1340.000000	100.408150
1360.000000	100.481003
1380.000000	100.547821
1400.000000	100.610649
1430.000000	100.700539
1450.000000	100.755318
1475.000000	100.822540
1500.000000	100.888184
1525.000000	100.950165
1550.000000	101.009209
1575.000000	101.065536
1600.000000	101.120575
1625.000000	101.177872
1650.000000	101.230713
1675.000000	101.281609
1700.000000	101.334412
1725.000000	101.387871
1750.000000	101.437859
1775.000000	101.484970
1800.000000	101.532959
1825.000000	101.581879
1850.000000	101.625778
1875.000000	101.668427
1900.000000	101.710167
1925.000000	101.753098
1950.000000	101.793495
1975.000000	101.830421
2000.000000	101.865646
2030.000000	101.913528
2060.000000	101.957214
2090.000000	101.998169
2120.000000	102.043556
2140.000000	102.076965
2180.000000	102.149269
2200.000000	102.189224
2240.000000	102.277832
2270.000000	102.359657
2300.000000	102.453606
2330.000000	102.555786
2360.000000	102.674881
2400.000000	102.852715
2430.000000	102.996841
2470.000000	103.194283
2500.000000	103.342163
2540.000000	103.532028
2580.000000	103.698898
2620.000000	103.837517
2650.000000	103.924721
2690.000000	104.023773
2720.000000	104.082298
2760.000000	104.151329
2800.000000	104.215042
2850.000000	104.291176
2900.000000	104.365868
2950.000000	104.443924
3000.000000	104.517578
3040.000000	104.567734
3070.000000	104.596809
3110.000000	104.618050
3150.000000	104.610359
3200.000000	104.549850
3250.000000	104.417526
3300.000000	104.202995
3350.000000	103.901680
3400.000000	103.516510
3450.000000	103.054832
3500.000000	102.532524
3550.000000	101.961334
3600.000000	101.360435
3650.000000	100.743660
3700.000000	100.134644
3750.000000	99.550598
3820.000000	98.837891
3870.000000	98.450706
3950.000000	98.125458
4000.000000	98.117599
4060.000000	98.287323
4120.000000	98.590813
4180.000000	98.959167
4250.000000	99.424171
4310.000000	99.818405
4370.000000	100.208046
4440.000000	100.649948
4500.000000	101.017685
4550.000000	101.317482
4620.000000	101.737350
4680.000000	102.099106
4750.000000	102.523628
4820.000000	102.959702
4870.000000	103.276566
4940.000000	103.728279
5000.000000	104.123962
5080.000000	104.650848
5150.000000	105.078232
5220.000000	105.433136
5300.000000	105.703789
5380.000000	105.801582
5450.000000	105.737099
5520.000000	105.542793
5600.000000	105.184418
5700.000000	104.599380
5800.000000	103.925247
5900.000000	103.227798
6000.000000	102.554344
6080.000000	102.049065
6150.000000	101.637634
6220.000000	101.262459
6300.000000	100.877640
6400.000000	100.463074
6500.000000	100.121933
6600.000000	99.851509
6700.000000	99.649765
6800.000000	99.510429
6900.000000	99.416260
7000.000000	99.368637
7100.000000	99.364494
7200.000000	99.401581
7300.000000	99.483459
7400.000000	99.601570
7500.000000	99.774902
7620.000000	100.038437
7750.000000	100.340942
7880.000000	100.591949
8000.000000	100.646866
8120.000000	100.328445
8250.000000	99.291176
8380.000000	97.344391
8500.000000	94.896675
8620.000000	93.231331
8750.000000	94.814499
8850.000000	97.442368
9000.000000	99.749214
9120.000000	101.408203
9250.000000	102.295715
9380.000000	102.591415
9500.000000	102.696465
9620.000000	102.721024
9750.000000	102.770287
9880.000000	102.877335
10000.000000	103.025146
10150.000000	103.270485
10300.000000	103.511200
10440.000000	103.723221
10600.000000	103.947426
10750.000000	104.138145
10900.000000	104.302765
11060.000000	104.411377
11200.000000	104.402718
11380.000000	104.157578
11500.000000	103.776306
11720.000000	102.685410
11800.000000	102.216850
12060.000000	100.328514
12200.000000	99.199310
12410.000000	97.511475
12500.000000	96.829819
12650.000000	95.801727
12800.000000	94.930489
13150.000000	93.851646
13200.000000	93.794830
13400.000000	93.693779
13600.000000	93.550034
13800.000000	93.481781
14000.000000	93.467705
14300.000000	93.222290
14500.000000	92.949905
14750.000000	92.663414
15000.000000	92.620026
15250.000000	92.863144
15500.000000	93.421585
15750.000000	94.325653
16000.000000	95.592445
16250.000000	97.089386
16500.000000	98.328110
16750.000000	98.954514
17000.000000	98.951157
17250.000000	98.629272
17500.000000	98.359276
17750.000000	98.327866
18000.000000	98.348946
18250.000000	97.813477
18500.000000	96.126205
18750.000000	93.602409
19000.000000	90.971252
19250.000000	88.506386
19500.000000	86.137352
19750.000000	83.722931
