* frequency_hz	amplitude
20.299999	104.146271
20.600000	104.162163
20.900000	104.173599
21.200001	104.182579
21.400000	104.187210
21.799999	104.193588
22.000000	104.195770
22.400000	104.199432
22.700001	104.202606
23.000000	104.206360
23.299999	104.210335
23.600000	104.213936
24.000000	104.217308
24.299999	104.218658
24.700001	104.219193
25.000000	104.218872
25.400000	104.217628
25.799999	104.215706
26.200001	104.213951
26.500000	104.213379
26.900000	104.213852
27.200001	104.214554
27.600000	104.214073
28.000000	104.210052
28.500000	104.199608
29.000000	104.187584
29.500000	104.179649
30.000000	104.176994
30.400000	104.175827
30.700001	104.173576
31.100000	104.167595
31.500000	104.159088
32.000000	104.148438
32.500000	104.140327
33.000000	104.132591
33.500000	104.120667
34.000000	104.103279
34.500000	104.084183
35.000000	104.067802
35.500000	104.054199
36.000000	104.040131
36.500000	104.024414
37.000000	104.009964
37.500000	103.999237
38.200001	103.985352
38.700001	103.970665
39.500000	103.942123
40.000000	103.927170
40.599998	103.910820
41.200001	103.889862
41.799999	103.864456
42.500000	103.837112
43.099998	103.817314
43.700001	103.797279
44.400002	103.773399
45.000000	103.753830
45.500000	103.735451
46.200001	103.701721
46.799999	103.668213
47.500000	103.634430
48.200001	103.612953
48.700001	103.603958
49.400002	103.591263
50.000000	103.570679
50.799999	103.529747
51.500000	103.496323
52.200001	103.468071
53.000000	103.435219
53.799999	103.401665
54.500000	103.365097
55.200001	103.332069
56.000000	103.318573
57.000000	103.275772
58.000000	103.223083
59.000000	103.179077
60.000000	103.047493
60.799999	103.037140
61.500000	103.083771
62.200001	103.069809
63.000000	103.008644
64.000000	102.968246
65.000000	102.922714
66.000000	102.885841
67.000000	102.837463
68.000000	102.788528
69.000000	102.746918
70.000000	102.701904
71.000000	102.653404
72.000000	102.604156
73.000000	102.565666
74.000000	102.523270
75.000000	102.474792
76.199997	102.422035
77.500000	102.369858
78.800003	102.318375
80.000000	102.260086
81.199997	102.209061
82.500000	102.156982
83.800003	102.099991
85.000000	102.047134
86.199997	101.994911
87.500000	101.934822
88.500000	101.887253
90.000000	101.821274
91.199997	101.768585
92.500000	101.713303
93.800003	101.648422
95.000000	101.593971
96.199997	101.543953
97.500000	101.488808
98.800003	101.423965
100.000000	101.369995
101.500000	101.317787
103.000000	101.276733
104.400002	101.227844
106.000000	101.171532
107.500000	101.114426
109.000000	101.064499
110.599998	100.993347
112.000000	100.940269
113.800003	100.857521
115.000000	100.812233
117.199997	100.715240
118.000000	100.654083
120.599998	100.613342
122.000000	100.518791
124.099998	100.421371
125.000000	100.401733
126.500000	100.342049
128.000000	100.303078
131.500000	100.246048
132.000000	100.240379
134.000000	100.208908
136.000000	100.173157
138.000000	100.123253
140.000000	100.065689
143.000000	99.966988
145.000000	99.905952
147.500000	99.816986
150.000000	99.736229
152.500000	99.650269
155.000000	99.565262
157.500000	99.483673
160.000000	99.403816
162.500000	99.324364
165.000000	99.247581
167.500000	99.167221
170.000000	99.096237
172.500000	99.019241
175.000000	98.948792
177.500000	98.876877
180.000000	98.838287
182.500000	98.749237
185.000000	98.693848
187.500000	98.633743
190.000000	98.581757
192.500000	98.538223
195.000000	98.484802
197.500000	98.440681
200.000000	98.393677
203.000000	98.336853
206.000000	98.274696
209.000000	98.215828
212.000000	98.152779
214.000000	98.111343
218.000000	98.026741
220.000000	97.986977
224.000000	97.906425
227.000000	97.846581
230.000000	97.785828
233.000000	97.728195
236.000000	97.671570
240.000000	97.545265
243.000000	97.532593
247.000000	97.461563
250.000000	97.404572
254.000000	97.339111
258.000000	97.266861
262.000000	97.202950
265.000000	97.152374
269.000000	97.088127
272.000000	97.043381
276.000000	96.983971
280.000000	96.924149
285.000000	96.854286
290.000000	96.787987
295.000000	96.724136
300.000000	96.711166
304.000000	96.608536
307.000000	96.564545
311.000000	96.521927
315.000000	96.479744
320.000000	96.424561
325.000000	96.368813
330.000000	96.322945
335.000000	96.264709
340.000000	96.212585
345.000000	96.154358
350.000000	96.107193
355.000000	96.057251
360.000000	96.024971
365.000000	95.965271
370.000000	95.920662
375.000000	95.877411
382.000000	95.823303
387.000000	95.787758
395.000000	95.740128
400.000000	95.710190
406.000000	95.691307
412.000000	95.661880
418.000000	95.645561
425.000000	95.611549
431.000000	95.580261
437.000000	95.548546
444.000000	95.507965
450.000000	95.477959
455.000000	95.448135
462.000000	95.410805
468.000000	95.382050
475.000000	95.339645
482.000000	95.298485
487.000000	95.280800
494.000000	95.241272
500.000000	95.218750
508.000000	95.181381
515.000000	95.152451
522.000000	95.121887
530.000000	95.087364
538.000000	95.053665
545.000000	95.031006
552.000000	95.004799
560.000000	94.973755
570.000000	94.940048
580.000000	94.904518
590.000000	94.877075
600.000000	94.822304
608.000000	94.814064
615.000000	94.794167
622.000000	94.769897
630.000000	94.748024
640.000000	94.716362
650.000000	94.693542
660.000000	94.600945
670.000000	94.634491
680.000000	94.605629
690.000000	94.581894
700.000000	94.558014
710.000000	94.530602
720.000000	94.499382
730.000000	94.486702
740.000000	94.462570
750.000000	94.440727
762.000000	94.412865
775.000000	94.390747
788.000000	94.358986
800.000000	94.335281
812.000000	94.315140
825.000000	94.293365
838.000000	94.263596
850.000000	94.253983
862.000000	94.239311
875.000000	94.220284
885.000000	94.206284
900.000000	94.150505
912.000000	94.188354
925.000000	94.180580
938.000000	94.176270
950.000000	94.173080
962.000000	94.173141
975.000000	94.175415
988.000000	94.181534
1000.000000	94.186462
1015.000000	94.206100
1030.000000	94.215858
1044.000000	94.241653
1060.000000	94.264786
1075.000000	94.285477
1090.000000	94.310516
1106.000000	94.347771
1120.000000	94.372078
1138.000000	94.401459
1150.000000	94.441948
1172.000000	94.484039
1180.000000	94.498993
1206.000000	94.551788
1220.000000	94.581375
1241.000000	94.623383
1250.000000	94.643250
1265.000000	94.674751
1280.000000	94.694473
1315.000000	94.766121
1320.000000	94.752304
1340.000000	94.817932
1360.000000	94.866257
1380.000000	94.940567
1400.000000	94.966385
1430.000000	95.051826
1450.000000	95.116821
1475.000000	95.209740
1500.000000	95.317757
1525.000000	95.428986
1550.000000	95.556740
1575.000000	95.699318
1600.000000	95.858002
1625.000000	96.025368
1650.000000	96.203445
1675.000000	96.397018
1700.000000	96.607483
1725.000000	96.827957
1750.000000	97.054962
1775.000000	97.299995
1800.000000	97.556190
1825.000000	97.822449
1850.000000	98.099182
1875.000000	98.387360
1900.000000	98.686890
1925.000000	98.996674
1950.000000	99.314499
1975.000000	99.643372
2000.000000	99.982948
2030.000000	100.398117
2060.000000	100.825623
2090.000000	101.257797
2120.000000	101.700691
2140.000000	101.994339
2180.000000	102.585739
2200.000000	102.879745
2240.000000	103.449471
2270.000000	103.857506
2300.000000	104.242317
2330.000000	104.591263
2360.000000	104.901894
2400.000000	105.240829
2430.000000	105.434120
2470.000000	105.601517
2500.000000	105.661499
2540.000000	105.657310
2580.000000	105.570404
2620.000000	105.415642
2650.000000	105.269958
2690.000000	105.048286
2720.000000	104.870621
2760.000000	104.643272
2800.000000	104.439163
2850.000000	104.211960
2900.000000	104.010506
2950.000000	103.839302
3000.000000	103.703705
3040.000000	103.623596
3070.000000	103.581047
3110.000000	103.548645
3150.000000	103.544006
3200.000000	103.576599
3250.000000	103.647903
3300.000000	103.756790
3350.000000	103.897461
3400.000000	104.060844
3450.000000	104.237007
3500.000000	104.409645
3550.000000	104.552803
3600.000000	104.647697
3650.000000	104.689964
3700.000000	104.709816
3750.000000	104.722824
3820.000000	104.630447
3870.000000	104.410576
3950.000000	103.734764
4000.000000	103.117561
4060.000000	102.222328
4120.000000	101.232712
4180.000000	100.234772
4250.000000	99.206581
4310.000000	98.547462
4370.000000	98.181770
4440.000000	98.173088
4500.000000	98.489502
4550.000000	98.939835
4620.000000	99.746788
4680.000000	100.492546
4750.000000	101.301216
4820.000000	101.911575
4870.000000	102.174866
4940.000000	102.259903
5000.000000	102.095055
5080.000000	101.618607
5150.000000	101.068680
5220.000000	100.465439
5300.000000	99.770065
5380.000000	99.120445
5450.000000	98.592033
5520.000000	98.101883
5600.000000	97.591164
5700.000000	97.015305
5800.000000	96.482544
5900.000000	95.982574
6000.000000	95.570885
6080.000000	95.339417
6150.000000	95.217087
6220.000000	95.178619
6300.000000	95.217026
6400.000000	95.355713
6500.000000	95.584328
6600.000000	95.897118
6700.000000	96.295044
6800.000000	96.771217
6900.000000	97.332672
7000.000000	97.987305
7100.000000	98.742149
7200.000000	99.594376
7300.000000	100.543167
7400.000000	101.579033
7500.000000	102.664536
7620.000000	103.963425
7750.000000	105.187973
7880.000000	105.976913
8000.000000	106.188683
8120.000000	106.013458
8250.000000	105.649658
8380.000000	105.326820
8500.000000	105.162750
8620.000000	105.134918
8750.000000	105.189880
8850.000000	105.187271
9000.000000	104.893250
9120.000000	104.321777
9250.000000	103.412811
9380.000000	102.400330
9500.000000	101.520508
9620.000000	100.731148
9750.000000	99.957603
9880.000000	99.185471
10000.000000	98.404434
10150.000000	97.312813
10300.000000	96.114662
10440.000000	94.960526
10600.000000	93.690674
10750.000000	92.570358
10900.000000	91.582184
11060.000000	90.644028
11200.000000	89.938248
11380.000000	89.167953
11500.000000	88.735336
11720.000000	88.119980
11800.000000	87.959732
12060.000000	87.562119
12200.000000	87.469383
12410.000000	87.473831
12500.000000	87.512840
12650.000000	87.668022
12800.000000	87.822113
13150.000000	88.295273
13200.000000	88.377167
13400.000000	88.511063
13600.000000	88.529617
13800.000000	88.549179
14000.000000	88.608704
14300.000000	89.233025
14500.000000	90.005219
14750.000000	91.110733
15000.000000	91.646721
15250.000000	91.133713
15500.000000	89.784149
15750.000000	87.995895
16000.000000	85.587250
16250.000000	84.118958
16500.000000	83.657944
16750.000000	84.003311
17000.000000	84.771973
17250.000000	86.174667
17500.000000	88.049759
17750.000000	89.508774
18000.000000	88.885330
18250.000000	86.512978
18500.000000	84.281517
18750.000000	82.301582
19000.000000	80.730194
19250.000000	78.782707
19500.000000	76.755257
19750.000000	74.230789
