* frequency_hz	amplitude
20.000000	98.413948
20.299999	98.454529
20.600000	98.493835
20.900000	98.533791
21.200001	98.576324
21.400000	98.607147
21.799999	98.675758
22.000000	98.713005
22.400000	98.789032
22.700001	98.841248
23.000000	98.884506
23.299999	98.917015
23.600000	98.940399
24.000000	98.965462
24.299999	98.985512
24.700001	99.016266
25.000000	99.038040
25.400000	99.056549
25.799999	99.058395
26.200001	99.051224
26.500000	99.049232
26.900000	99.060081
27.200001	99.078461
27.600000	99.107819
28.000000	99.132904
28.500000	99.155960
29.000000	99.185913
29.500000	99.232452
30.000000	99.279427
30.400000	99.302277
30.700001	99.308891
31.100000	99.309906
31.500000	99.312805
32.000000	99.327896
32.500000	99.350334
33.000000	99.369408
33.500000	99.382927
34.000000	99.392677
34.500000	99.395950
35.000000	99.390305
35.500000	99.382874
36.000000	99.386505
36.500000	99.404572
37.000000	99.425430
37.500000	99.435501
38.200001	99.432419
38.700001	99.432533
39.500000	99.449501
40.000000	99.460655
40.599998	99.465561
41.200001	99.465744
41.799999	99.467934
42.500000	99.472076
43.099998	99.473595
43.700001	99.473938
44.400002	99.471069
45.000000	99.461365
45.500000	99.450516
46.200001	99.442200
46.799999	99.444191
47.500000	99.445168
48.200001	99.438225
48.700001	99.434669
49.400002	99.438293
50.000000	99.441177
50.799999	99.429268
51.500000	99.414009
52.200001	99.409637
53.000000	99.402618
53.799999	99.376396
54.500000	99.355843
55.200001	99.345291
56.000000	99.328934
57.000000	99.310196
58.000000	99.301620
59.000000	99.284126
60.000000	99.270462
60.799999	99.248756
61.500000	99.229042
62.200001	99.221443
63.000000	99.213364
64.000000	99.188629
65.000000	99.166962
66.000000	99.144051
67.000000	99.121613
68.000000	99.094849
69.000000	99.064857
70.000000	99.036263
71.000000	99.011353
72.000000	98.991348
73.000000	98.973442
74.000000	98.962921
75.000000	98.937225
76.199997	98.910965
77.500000	98.883842
78.800003	98.847542
80.000000	98.827034
81.199997	98.792023
82.500000	98.756454
83.800003	98.725403
85.000000	98.693024
86.199997	98.667061
87.500000	98.621826
88.500000	98.601257
90.000000	98.555443
91.199997	98.530113
92.500000	98.481247
93.800003	98.467552
95.000000	98.419708
96.199997	98.391785
97.500000	98.349815
98.800003	98.315994
100.000000	98.273727
101.500000	98.244278
103.000000	98.193176
104.400002	98.146713
106.000000	98.116455
107.500000	98.073547
109.000000	98.025162
110.599998	97.977036
112.000000	97.933144
113.800003	97.889168
115.000000	97.849159
117.199997	97.788910
118.000000	97.762306
120.599998	97.693512
122.000000	97.644958
124.099998	97.595749
125.000000	97.571960
126.500000	97.530838
128.000000	97.480362
131.500000	97.389450
132.000000	97.363708
134.000000	97.310654
136.000000	97.265900
138.000000	97.239136
140.000000	97.152466
143.000000	97.119026
145.000000	96.964233
147.500000	96.794281
150.000000	96.741409
152.500000	96.789383
155.000000	96.749290
157.500000	96.690125
160.000000	96.493393
162.500000	96.561180
165.000000	96.557388
167.500000	96.374168
170.000000	96.388420
172.500000	96.175888
175.000000	96.218170
177.500000	96.147079
180.000000	96.101814
182.500000	95.945992
185.000000	95.911560
187.500000	95.940231
190.000000	95.928680
192.500000	95.844589
195.000000	95.744698
197.500000	95.668068
200.000000	95.604218
203.000000	95.522530
206.000000	95.462456
209.000000	95.399483
212.000000	95.330536
214.000000	95.283607
218.000000	95.202850
220.000000	95.161011
224.000000	95.071793
227.000000	95.008644
230.000000	94.946793
233.000000	94.893631
236.000000	94.813110
240.000000	94.740219
243.000000	94.695503
247.000000	94.611473
250.000000	94.529190
254.000000	94.513832
258.000000	94.412315
262.000000	94.274086
265.000000	94.207428
269.000000	94.174049
272.000000	94.110428
276.000000	94.054008
280.000000	93.950920
285.000000	93.900162
290.000000	93.813087
295.000000	93.776093
300.000000	93.611908
304.000000	93.608154
307.000000	93.566910
311.000000	93.479759
315.000000	93.426109
320.000000	93.363754
325.000000	93.287971
330.000000	93.219154
335.000000	93.156906
340.000000	93.067154
345.000000	93.013008
350.000000	92.933037
355.000000	92.872002
360.000000	92.826683
365.000000	92.746819
370.000000	92.676842
375.000000	92.631546
382.000000	92.551231
387.000000	92.499306
395.000000	92.393341
400.000000	92.337944
406.000000	92.268852
412.000000	92.213196
418.000000	92.156998
425.000000	92.085915
431.000000	92.027557
437.000000	91.972885
444.000000	91.921997
450.000000	91.873505
455.000000	91.811409
462.000000	91.760910
468.000000	91.689056
475.000000	91.625763
482.000000	91.619415
487.000000	91.574905
494.000000	91.489227
500.000000	91.411331
508.000000	91.402649
515.000000	91.309998
522.000000	91.269089
530.000000	91.226959
538.000000	91.149666
545.000000	91.111244
552.000000	91.065041
560.000000	91.023529
570.000000	90.907585
580.000000	90.886482
590.000000	90.858017
600.000000	90.768570
608.000000	90.653656
615.000000	90.661591
622.000000	90.672821
630.000000	90.592255
640.000000	90.514885
650.000000	90.505150
660.000000	90.438828
670.000000	90.404068
680.000000	90.316605
690.000000	90.291306
700.000000	90.247963
710.000000	90.200256
720.000000	90.154961
730.000000	90.115326
740.000000	90.063530
750.000000	90.032791
762.000000	89.992981
775.000000	89.989639
788.000000	89.951859
800.000000	90.007370
812.000000	90.103546
825.000000	90.270058
838.000000	90.493088
850.000000	90.593506
862.000000	90.534729
875.000000	90.560791
885.000000	90.637100
900.000000	90.702309
912.000000	90.753227
925.000000	90.790710
938.000000	90.818481
950.000000	90.866714
962.000000	90.901855
975.000000	90.942932
988.000000	90.982254
1000.000000	91.002899
1015.000000	90.970474
1030.000000	91.050819
1044.000000	91.186752
1060.000000	91.311584
1075.000000	91.408127
1090.000000	91.509018
1106.000000	91.599213
1120.000000	91.691566
1138.000000	91.794746
1150.000000	91.867622
1172.000000	91.998512
1180.000000	92.043167
1206.000000	92.185547
1220.000000	92.258835
1241.000000	92.357796
1250.000000	92.403793
1265.000000	92.469986
1280.000000	92.537300
1315.000000	92.666275
1320.000000	92.684837
1340.000000	92.748695
1360.000000	92.809189
1380.000000	92.855301
1400.000000	92.904556
1430.000000	92.963821
1450.000000	93.006409
1475.000000	93.057205
1500.000000	93.119125
1525.000000	93.204720
1550.000000	93.294846
1575.000000	93.368034
1600.000000	93.421677
1625.000000	93.461975
1650.000000	93.491821
1675.000000	93.520363
1700.000000	93.548347
1725.000000	93.575317
1750.000000	93.601173
1775.000000	93.624672
1800.000000	93.652824
1825.000000	93.684586
1850.000000	93.717529
1875.000000	93.755226
1900.000000	93.785851
1925.000000	93.824005
1950.000000	93.850479
1975.000000	93.884651
2000.000000	93.910477
2030.000000	93.952530
2060.000000	93.984741
2090.000000	94.023666
2120.000000	94.061790
2140.000000	94.085861
2180.000000	94.132462
2200.000000	94.160423
2240.000000	94.204155
2270.000000	94.245155
2300.000000	94.280792
2330.000000	94.316704
2360.000000	94.363274
2400.000000	94.427528
2430.000000	94.478836
2470.000000	94.551231
2500.000000	94.605209
2540.000000	94.684723
2580.000000	94.768135
2620.000000	94.887001
2650.000000	94.993820
2690.000000	95.151718
2720.000000	95.269905
2760.000000	95.414047
2800.000000	95.556870
2850.000000	95.734848
2900.000000	95.915741
2950.000000	96.094376
3000.000000	96.273590
3040.000000	96.416557
3070.000000	96.528160
3110.000000	96.685547
3150.000000	96.845070
3200.000000	97.048065
3250.000000	97.247574
3300.000000	97.436409
3350.000000	97.628967
3400.000000	97.818008
3450.000000	98.003540
3500.000000	98.185966
3550.000000	98.370605
3600.000000	98.546814
3650.000000	98.716354
3700.000000	98.874550
3750.000000	99.039139
3820.000000	99.295654
3870.000000	99.494415
3950.000000	99.815514
4000.000000	100.002457
4060.000000	100.205856
4120.000000	100.396835
4180.000000	100.571548
4250.000000	100.756767
4310.000000	100.899048
4370.000000	101.018219
4440.000000	101.127686
4500.000000	101.190926
4550.000000	101.221970
4620.000000	101.230507
4680.000000	101.208878
4750.000000	101.155266
4820.000000	101.072342
4870.000000	100.998383
4940.000000	100.871773
5000.000000	100.747231
5080.000000	100.560120
5150.000000	100.382629
5220.000000	100.191162
5300.000000	99.968246
5380.000000	99.742111
5450.000000	99.536934
5520.000000	99.328873
5600.000000	98.997681
5700.000000	98.249756
5800.000000	98.858963
5900.000000	99.058693
6000.000000	98.812752
6080.000000	98.667389
6150.000000	98.558876
6220.000000	98.475891
6300.000000	98.403107
6400.000000	98.341431
6500.000000	98.310440
6600.000000	98.315636
6700.000000	98.371201
6800.000000	98.434471
6900.000000	98.529907
7000.000000	98.669846
7100.000000	98.845314
7200.000000	99.080048
7300.000000	99.344597
7400.000000	99.629478
7500.000000	99.906059
7620.000000	100.173256
7750.000000	100.389778
7880.000000	100.481216
8000.000000	100.433968
8120.000000	100.241310
8250.000000	99.884064
8380.000000	99.410080
8500.000000	98.899277
8620.000000	98.337875
8750.000000	97.672691
8850.000000	97.135071
9000.000000	96.330460
9120.000000	95.710922
9250.000000	95.075119
9380.000000	94.489639
9500.000000	94.001801
9620.000000	93.549637
9750.000000	93.113289
9880.000000	92.733788
10000.000000	92.441391
10150.000000	92.123108
10300.000000	91.881020
10440.000000	91.711349
10600.000000	91.598198
10750.000000	91.571922
10900.000000	91.651489
11060.000000	91.837334
11200.000000	92.091644
11380.000000	92.473335
11500.000000	92.799774
11720.000000	93.578613
11800.000000	93.918793
12060.000000	95.250145
12200.000000	96.116432
12410.000000	97.505905
12500.000000	98.084450
12650.000000	98.859161
12800.000000	99.190849
13150.000000	97.792603
13200.000000	97.435188
13400.000000	95.937119
13600.000000	94.538994
13800.000000	93.341736
14000.000000	92.383026
14300.000000	91.361488
14500.000000	90.916985
14750.000000	90.508324
15000.000000	90.094322
15250.000000	89.302032
15500.000000	87.278259
15750.000000	84.325706
16000.000000	82.051361
16250.000000	81.601173
16500.000000	77.969284
16750.000000	77.033966
17000.000000	77.389313
17250.000000	77.678825
17500.000000	77.475922
17750.000000	76.749702
18000.000000	75.747635
18250.000000	74.995140
18500.000000	74.820175
18750.000000	74.838074
19000.000000	74.922020
19250.000000	74.754013
19500.000000	73.897179
19750.000000	72.110573
