* frequency_hz	amplitude
20.299999	98.957695
20.600000	99.042908
20.900000	99.125183
21.200001	99.207939
21.400000	99.262314
21.799999	99.362679
22.000000	99.406219
22.400000	99.479034
22.700001	99.525070
23.000000	99.570549
23.299999	99.621727
23.600000	99.682190
24.000000	99.775200
24.299999	99.847549
24.700001	99.936539
25.000000	99.993431
25.400000	100.057190
25.799999	100.114922
26.200001	100.174950
26.500000	100.223297
26.900000	100.289726
27.200001	100.338264
27.600000	100.398308
28.000000	100.452896
28.500000	100.516602
29.000000	100.578690
29.500000	100.639198
30.000000	100.696815
30.400000	100.740944
30.700001	100.773232
31.100000	100.815567
31.500000	100.856995
32.000000	100.906769
32.500000	100.953522
33.000000	100.996765
33.500000	101.036697
34.000000	101.074509
34.500000	101.111984
35.000000	101.150055
35.500000	101.187675
36.000000	101.222801
36.500000	101.254555
37.000000	101.284050
37.500000	101.312653
38.200001	101.350975
38.700001	101.376396
39.500000	101.415550
40.000000	101.440094
40.599998	101.468628
41.200001	101.495903
41.799999	101.522621
42.500000	101.549118
43.099998	101.563095
43.700001	101.573318
44.400002	101.593224
45.000000	101.616737
45.500000	101.633400
46.200001	101.646896
46.799999	101.654556
47.500000	101.666145
48.200001	101.679115
48.700001	101.686768
49.400002	101.694397
50.000000	101.700485
50.799999	101.712326
51.500000	101.723297
52.200001	101.729713
53.000000	101.734474
53.799999	101.737068
54.500000	101.732590
55.200001	101.725914
56.000000	101.723686
57.000000	101.729599
58.000000	101.740265
59.000000	101.729767
60.000000	101.713646
60.799999	101.714920
61.500000	101.713600
62.200001	101.706863
63.000000	101.699203
64.000000	101.687866
65.000000	101.673470
66.000000	101.659973
67.000000	101.647064
68.000000	101.627991
69.000000	101.611893
70.000000	101.601234
71.000000	101.581505
72.000000	101.561974
73.000000	101.544456
74.000000	101.522743
75.000000	101.501450
76.199997	101.474548
77.500000	101.446976
78.800003	101.416122
80.000000	101.389282
81.199997	101.358437
82.500000	101.324211
83.800003	101.287445
85.000000	101.259476
86.199997	101.228783
87.500000	101.190437
88.500000	101.164215
90.000000	101.121445
91.199997	101.087151
92.500000	101.050079
93.800003	101.013840
95.000000	100.979042
96.199997	100.942886
97.500000	100.902763
98.800003	100.863052
100.000000	100.825470
101.500000	100.782028
103.000000	100.735016
104.400002	100.688736
106.000000	100.639786
107.500000	100.592148
109.000000	100.544182
110.599998	100.492355
112.000000	100.448898
113.800003	100.389488
115.000000	100.353104
117.199997	100.280342
118.000000	100.250252
120.599998	100.185562
122.000000	100.121048
124.099998	100.055939
125.000000	100.028069
126.500000	99.973679
128.000000	99.927322
131.500000	99.812737
132.000000	99.797874
134.000000	99.729393
136.000000	99.661453
138.000000	99.595467
140.000000	99.533409
143.000000	99.433174
145.000000	99.369141
147.500000	99.290863
150.000000	99.209595
152.500000	99.128311
155.000000	99.049866
157.500000	98.968315
160.000000	98.890862
162.500000	98.809883
165.000000	98.729965
167.500000	98.652328
170.000000	98.575073
172.500000	98.496490
175.000000	98.420952
177.500000	98.342651
180.000000	98.270699
182.500000	98.191437
185.000000	98.116318
187.500000	98.040939
190.000000	97.964630
192.500000	97.887123
195.000000	97.817261
197.500000	97.745163
200.000000	97.672058
203.000000	97.584961
206.000000	97.501480
209.000000	97.415161
212.000000	97.330788
214.000000	97.273483
218.000000	97.163597
220.000000	97.108757
224.000000	96.999382
227.000000	96.918579
230.000000	96.838394
233.000000	96.758980
236.000000	96.677643
240.000000	96.554306
243.000000	96.498489
247.000000	96.395607
250.000000	96.321320
254.000000	96.216698
258.000000	96.121475
262.000000	96.021599
265.000000	95.947891
269.000000	95.853264
272.000000	95.784081
276.000000	95.686432
280.000000	95.593239
285.000000	95.478661
290.000000	95.362663
295.000000	95.253578
300.000000	95.146721
304.000000	95.054306
307.000000	94.990631
311.000000	94.904839
315.000000	94.818153
320.000000	94.713486
325.000000	94.607262
330.000000	94.504829
335.000000	94.406364
340.000000	94.304321
345.000000	94.204041
350.000000	94.108376
355.000000	94.008308
360.000000	93.909576
365.000000	93.818527
370.000000	93.723083
375.000000	93.629990
382.000000	93.498123
387.000000	93.403412
395.000000	93.257385
400.000000	93.166916
406.000000	93.056137
412.000000	92.944031
418.000000	92.832527
425.000000	92.703560
431.000000	92.595993
437.000000	92.492676
444.000000	92.387405
450.000000	92.313705
455.000000	92.266159
462.000000	92.234291
468.000000	92.219734
475.000000	92.195709
482.000000	92.143661
487.000000	92.091599
494.000000	92.012222
500.000000	91.930580
508.000000	91.829643
515.000000	91.737991
522.000000	91.647598
530.000000	91.547165
538.000000	91.448494
545.000000	91.361656
552.000000	91.276726
560.000000	91.187561
570.000000	91.070618
580.000000	90.961487
590.000000	90.850647
600.000000	90.730484
608.000000	90.668343
615.000000	90.602074
622.000000	90.532448
630.000000	90.457458
640.000000	90.365341
650.000000	90.279160
660.000000	90.195496
670.000000	90.103714
680.000000	90.022255
690.000000	89.950897
700.000000	89.871284
710.000000	89.800011
720.000000	89.715652
730.000000	89.670502
740.000000	89.600555
750.000000	89.535645
762.000000	89.469505
775.000000	89.404297
788.000000	89.338623
800.000000	89.288422
812.000000	89.229050
825.000000	89.192131
838.000000	89.148964
850.000000	89.120491
862.000000	89.091286
875.000000	89.063309
885.000000	89.051804
900.000000	89.025284
912.000000	89.027580
925.000000	89.027054
938.000000	89.026939
950.000000	89.036644
962.000000	89.054039
975.000000	89.079399
988.000000	89.104584
1000.000000	89.127182
1015.000000	89.176048
1030.000000	89.222992
1044.000000	89.269203
1060.000000	89.327339
1075.000000	89.384804
1090.000000	89.451370
1106.000000	89.516342
1120.000000	89.576385
1138.000000	89.660522
1150.000000	89.720749
1172.000000	89.820381
1180.000000	89.862289
1206.000000	89.987831
1220.000000	90.051727
1241.000000	90.140366
1250.000000	90.177231
1265.000000	90.236916
1280.000000	90.283844
1315.000000	90.388908
1320.000000	90.415665
1340.000000	90.447350
1360.000000	90.491890
1380.000000	90.529175
1400.000000	90.566170
1430.000000	90.619202
1450.000000	90.645012
1475.000000	90.684303
1500.000000	90.709793
1525.000000	90.750153
1550.000000	90.781868
1575.000000	90.814369
1600.000000	90.847061
1625.000000	90.880051
1650.000000	90.920654
1675.000000	90.953850
1700.000000	90.999992
1725.000000	91.042274
1750.000000	91.087524
1775.000000	91.137543
1800.000000	91.196342
1825.000000	91.251884
1850.000000	91.305389
1875.000000	91.375511
1900.000000	91.439095
1925.000000	91.507896
1950.000000	91.585220
1975.000000	91.660019
2000.000000	91.743942
2030.000000	91.842514
2060.000000	91.951569
2090.000000	92.058784
2120.000000	92.172302
2140.000000	92.252289
2180.000000	92.413666
2200.000000	92.501205
2240.000000	92.666718
2270.000000	92.800888
2300.000000	92.934479
2330.000000	93.073494
2360.000000	93.205338
2400.000000	93.384483
2430.000000	93.530952
2470.000000	93.723900
2500.000000	93.866455
2540.000000	94.061424
2580.000000	94.264679
2620.000000	94.464241
2650.000000	94.615295
2690.000000	94.823593
2720.000000	94.981773
2760.000000	95.191101
2800.000000	95.409096
2850.000000	95.680946
2900.000000	95.956146
2950.000000	96.234741
3000.000000	96.521515
3040.000000	96.746925
3070.000000	96.920509
3110.000000	97.148079
3150.000000	97.375931
3200.000000	97.663315
3250.000000	97.947586
3300.000000	98.226791
3350.000000	98.504402
3400.000000	98.774521
3450.000000	99.043221
3500.000000	99.299072
3550.000000	99.545563
3600.000000	99.788345
3650.000000	100.015503
3700.000000	100.232277
3750.000000	100.436836
3820.000000	100.696838
3870.000000	100.866837
3950.000000	101.102531
4000.000000	101.231934
4060.000000	101.360130
4120.000000	101.466957
4180.000000	101.551208
4250.000000	101.630630
4310.000000	101.687279
4370.000000	101.739548
4440.000000	101.794846
4500.000000	101.840935
4550.000000	101.870262
4620.000000	101.901474
4680.000000	101.917175
4750.000000	101.925682
4820.000000	101.925354
4870.000000	101.922264
4940.000000	101.919159
5000.000000	101.909378
5080.000000	101.898216
5150.000000	101.888092
5220.000000	101.880455
5300.000000	101.875938
5380.000000	101.876778
5450.000000	101.885895
5520.000000	101.903450
5600.000000	101.929886
5700.000000	101.968338
5800.000000	102.009048
5900.000000	102.049393
6000.000000	102.082291
6080.000000	102.104904
6150.000000	102.116974
6220.000000	102.125854
6300.000000	102.129379
6400.000000	102.128983
6500.000000	102.117546
6600.000000	102.095413
6700.000000	102.060966
6800.000000	102.011879
6900.000000	101.948204
7000.000000	101.875641
7100.000000	101.799171
7200.000000	101.738953
7300.000000	101.693001
7400.000000	101.648209
7500.000000	101.595955
7620.000000	101.564560
7750.000000	101.544556
7880.000000	101.522278
8000.000000	101.504227
8120.000000	101.483002
8250.000000	101.446609
8380.000000	101.393669
8500.000000	101.317322
8620.000000	101.183846
8750.000000	100.938187
8850.000000	100.664001
9000.000000	100.122551
9120.000000	99.595345
9250.000000	98.950554
9380.000000	98.253670
9500.000000	97.587379
9620.000000	96.907555
9750.000000	96.169235
9880.000000	95.455956
10000.000000	94.820892
10150.000000	94.069733
10300.000000	93.361221
10440.000000	92.741409
10600.000000	92.119858
10750.000000	91.581947
10900.000000	91.105125
11060.000000	90.656258
11200.000000	90.319420
11380.000000	89.944656
11500.000000	89.735161
11720.000000	89.459969
11800.000000	89.376129
12060.000000	89.261284
12200.000000	89.264320
12410.000000	89.360550
12500.000000	89.442757
12650.000000	89.619110
12800.000000	89.899567
13150.000000	90.788521
13200.000000	90.963165
13400.000000	91.756081
13600.000000	92.825653
13800.000000	94.197571
14000.000000	95.962608
14300.000000	99.548027
14500.000000	102.330872
14750.000000	102.785202
15000.000000	99.406601
15250.000000	96.197769
15500.000000	93.844704
15750.000000	92.124863
16000.000000	90.890488
16250.000000	90.058853
16500.000000	89.523758
16750.000000	89.324051
17000.000000	89.323135
17250.000000	89.462456
17500.000000	89.427956
17750.000000	88.803787
18000.000000	87.441368
18250.000000	85.634789
18500.000000	83.779274
18750.000000	81.957733
19000.000000	80.276001
19250.000000	78.944962
19500.000000	77.216454
19750.000000	74.960228
