* frequency_hz	amplitude
20.299999	107.421135
20.600000	107.422333
20.900000	107.417664
21.200001	107.413445
21.400000	107.411911
21.799999	107.411125
22.000000	107.411057
22.400000	107.409683
22.700001	107.406685
23.000000	107.402313
23.299999	107.397507
23.600000	107.393219
24.000000	107.389114
24.299999	107.386650
24.700001	107.382133
25.000000	107.376167
25.400000	107.363266
25.799999	107.344963
26.200001	107.323158
26.500000	107.305832
26.900000	107.282234
27.200001	107.264015
27.600000	107.238396
28.000000	107.211563
28.500000	107.179665
29.000000	107.155243
29.500000	107.139801
30.000000	107.127235
30.400000	107.113846
30.700001	107.100388
31.100000	107.078438
31.500000	107.054153
32.000000	107.023262
32.500000	106.991859
33.000000	106.958679
33.500000	106.924622
34.000000	106.892586
34.500000	106.863548
35.000000	106.834862
35.500000	106.803253
36.000000	106.768188
36.500000	106.731819
37.000000	106.696205
37.500000	106.661758
38.200001	106.614273
38.700001	106.580376
39.500000	106.525360
40.000000	106.489662
40.599998	106.445946
41.200001	106.402985
41.799999	106.361115
42.500000	106.311417
43.099998	106.267014
43.700001	106.221825
44.400002	106.168869
45.000000	106.122818
45.500000	106.084198
46.200001	106.031387
46.799999	105.988503
47.500000	105.939560
48.200001	105.887741
48.700001	105.849091
49.400002	105.797005
50.000000	105.754471
50.799999	105.694550
51.500000	105.638550
52.200001	105.582153
53.000000	105.517326
53.799999	105.455589
54.500000	105.402199
55.200001	105.350525
56.000000	105.305893
57.000000	105.230927
58.000000	105.136841
59.000000	105.101074
60.000000	104.993263
60.799999	104.911827
61.500000	104.896454
62.200001	104.861969
63.000000	104.782845
64.000000	104.720802
65.000000	104.657959
66.000000	104.573357
67.000000	104.497833
68.000000	104.432220
69.000000	104.367493
70.000000	104.293777
71.000000	104.225212
72.000000	104.162971
73.000000	104.099533
74.000000	104.025185
75.000000	103.954254
76.199997	103.885124
77.500000	103.801506
78.800003	103.713631
80.000000	103.637428
81.199997	103.563187
82.500000	103.482079
83.800003	103.398071
85.000000	103.328018
86.199997	103.259743
87.500000	103.181206
88.500000	103.122665
90.000000	103.036362
91.199997	102.968842
92.500000	102.892990
93.800003	102.822372
95.000000	102.751129
96.199997	102.687309
97.500000	102.616570
98.800003	102.547104
100.000000	102.486038
101.500000	102.406380
103.000000	102.328285
104.400002	102.259476
106.000000	102.179115
107.500000	102.106834
109.000000	102.034752
110.599998	101.954605
112.000000	101.892570
113.800003	101.800148
115.000000	101.757935
117.199997	101.650375
118.000000	101.591484
120.599998	101.574280
122.000000	101.443756
124.099998	101.355888
125.000000	101.328720
126.500000	101.254890
128.000000	101.199158
131.500000	101.064140
132.000000	101.044334
134.000000	100.960915
136.000000	100.886086
138.000000	100.817787
140.000000	100.746490
143.000000	100.639168
145.000000	100.568329
147.500000	100.490372
150.000000	100.402321
152.500000	100.325638
155.000000	100.247055
157.500000	100.169731
160.000000	100.092514
162.500000	100.014786
165.000000	99.941650
167.500000	99.869995
170.000000	99.797791
172.500000	99.726898
175.000000	99.654861
177.500000	99.581696
180.000000	99.534378
182.500000	99.444374
185.000000	99.370346
187.500000	99.304886
190.000000	99.243309
192.500000	99.169991
195.000000	99.128708
197.500000	99.091026
200.000000	99.096939
203.000000	99.136879
206.000000	99.197998
209.000000	99.256134
212.000000	99.280609
214.000000	99.277229
218.000000	99.237350
220.000000	99.206978
224.000000	99.140709
227.000000	99.087898
230.000000	99.039276
233.000000	98.989578
236.000000	98.941895
240.000000	98.860550
243.000000	98.834442
247.000000	98.782639
250.000000	98.749519
254.000000	98.697472
258.000000	98.651077
262.000000	98.606903
265.000000	98.574585
269.000000	98.527794
272.000000	98.503639
276.000000	98.465187
280.000000	98.432442
285.000000	98.389153
290.000000	98.349396
295.000000	98.316162
300.000000	98.330109
304.000000	98.258354
307.000000	98.236572
311.000000	98.210892
315.000000	98.187698
320.000000	98.159111
325.000000	98.130280
330.000000	98.106110
335.000000	98.085175
340.000000	98.061157
345.000000	98.043182
350.000000	98.022774
355.000000	98.003609
360.000000	97.992393
365.000000	97.966713
370.000000	97.945999
375.000000	97.926773
382.000000	97.902016
387.000000	97.884949
395.000000	97.857788
400.000000	97.838768
406.000000	97.821144
412.000000	97.798798
418.000000	97.780930
425.000000	97.759621
431.000000	97.740685
437.000000	97.722404
444.000000	97.695961
450.000000	97.678741
455.000000	97.664734
462.000000	97.644760
468.000000	97.634476
475.000000	97.635353
482.000000	97.656448
487.000000	97.685730
494.000000	97.731171
500.000000	97.753395
508.000000	97.765686
515.000000	97.766251
522.000000	97.758621
530.000000	97.746048
538.000000	97.739189
545.000000	97.723534
552.000000	97.713356
560.000000	97.699379
570.000000	97.683609
580.000000	97.663704
590.000000	97.651138
600.000000	97.644775
608.000000	97.626587
615.000000	97.621803
622.000000	97.612442
630.000000	97.605057
640.000000	97.593575
650.000000	97.584061
660.000000	97.605652
670.000000	97.564697
680.000000	97.556190
690.000000	97.551262
700.000000	97.545181
710.000000	97.539337
720.000000	97.545738
730.000000	97.531166
740.000000	97.529282
750.000000	97.528442
762.000000	97.527916
775.000000	97.533676
788.000000	97.539177
800.000000	97.541016
812.000000	97.549683
825.000000	97.560791
838.000000	97.578812
850.000000	97.599472
862.000000	97.633781
875.000000	97.679146
885.000000	97.714958
900.000000	97.746216
912.000000	97.800537
925.000000	97.837700
938.000000	97.881668
950.000000	97.922791
962.000000	97.965637
975.000000	98.024841
988.000000	98.078163
1000.000000	98.128181
1015.000000	98.199417
1030.000000	98.268112
1044.000000	98.334084
1060.000000	98.417152
1075.000000	98.492249
1090.000000	98.575165
1106.000000	98.661133
1120.000000	98.748871
1138.000000	98.863762
1150.000000	98.942963
1172.000000	99.096680
1180.000000	99.155457
1206.000000	99.355576
1220.000000	99.456596
1241.000000	99.607697
1250.000000	99.668808
1265.000000	99.771370
1280.000000	99.869209
1315.000000	100.062927
1320.000000	100.089821
1340.000000	100.184471
1360.000000	100.270424
1380.000000	100.353622
1400.000000	100.417915
1430.000000	100.516174
1450.000000	100.571617
1475.000000	100.638412
1500.000000	100.706520
1525.000000	100.756424
1550.000000	100.815712
1575.000000	100.869057
1600.000000	100.921722
1625.000000	100.975662
1650.000000	101.029823
1675.000000	101.084099
1700.000000	101.140701
1725.000000	101.199684
1750.000000	101.256645
1775.000000	101.319534
1800.000000	101.384163
1825.000000	101.450851
1850.000000	101.517166
1875.000000	101.589668
1900.000000	101.662979
1925.000000	101.740433
1950.000000	101.818336
1975.000000	101.900177
2000.000000	101.981964
2030.000000	102.088745
2060.000000	102.195190
2090.000000	102.307983
2120.000000	102.421707
2140.000000	102.497589
2180.000000	102.656876
2200.000000	102.737984
2240.000000	102.901627
2270.000000	103.025192
2300.000000	103.148811
2330.000000	103.276817
2360.000000	103.401855
2400.000000	103.571030
2430.000000	103.697052
2470.000000	103.863052
2500.000000	103.984627
2540.000000	104.139694
2580.000000	104.290192
2620.000000	104.430542
2650.000000	104.530777
2690.000000	104.653709
2720.000000	104.737267
2760.000000	104.837845
2800.000000	104.924774
2850.000000	105.012398
2900.000000	105.076157
2950.000000	105.114006
3000.000000	105.133530
3040.000000	105.130386
3070.000000	105.123978
3110.000000	105.100845
3150.000000	105.069260
3200.000000	105.014687
3250.000000	104.950134
3300.000000	104.877594
3350.000000	104.798233
3400.000000	104.716148
3450.000000	104.629761
3500.000000	104.541832
3550.000000	104.458176
3600.000000	104.376938
3650.000000	104.296402
3700.000000	104.217812
3750.000000	104.146713
3820.000000	104.052559
3870.000000	103.994598
3950.000000	103.911140
4000.000000	103.868057
4060.000000	103.824318
4120.000000	103.788582
4180.000000	103.758446
4250.000000	103.735275
4310.000000	103.723373
4370.000000	103.716179
4440.000000	103.712158
4500.000000	103.714851
4550.000000	103.719864
4620.000000	103.729065
4680.000000	103.738861
4750.000000	103.746567
4820.000000	103.749329
4870.000000	103.749428
4940.000000	103.734665
5000.000000	103.709785
5080.000000	103.646393
5150.000000	103.565475
5220.000000	103.451553
5300.000000	103.279442
5380.000000	103.057816
5450.000000	102.823997
5520.000000	102.562851
5600.000000	102.235191
5700.000000	101.812569
5800.000000	101.404831
5900.000000	101.040039
6000.000000	100.746552
6080.000000	100.571861
6150.000000	100.473099
6220.000000	100.430908
6300.000000	100.451759
6400.000000	100.592201
6500.000000	100.824257
6600.000000	101.110657
6700.000000	101.411011
6800.000000	101.689735
6900.000000	101.933632
7000.000000	102.138008
7100.000000	102.317848
7200.000000	102.483315
7300.000000	102.665092
7400.000000	102.865433
7500.000000	103.107994
7620.000000	103.463005
7750.000000	103.917168
7880.000000	104.373276
8000.000000	104.700661
8120.000000	104.776848
8250.000000	104.366470
8380.000000	103.462265
8500.000000	102.489731
8620.000000	101.514694
8750.000000	100.344376
8850.000000	99.435425
9000.000000	98.292908
9120.000000	97.668610
9250.000000	97.315651
9380.000000	97.279602
9500.000000	97.456398
9620.000000	97.925819
9750.000000	98.547318
9880.000000	99.127625
10000.000000	99.541145
10150.000000	99.739372
10300.000000	99.514206
10440.000000	98.990898
10600.000000	98.224915
10750.000000	97.481224
10900.000000	96.796532
11060.000000	96.220863
11200.000000	95.759537
11380.000000	95.176994
11500.000000	95.042328
11720.000000	94.901215
11800.000000	94.888786
12060.000000	94.911682
12200.000000	94.909714
12410.000000	94.823486
12500.000000	94.700050
12650.000000	94.342659
12800.000000	93.756851
13150.000000	94.521683
13200.000000	94.224182
13400.000000	93.343300
13600.000000	92.757782
13800.000000	92.467178
14000.000000	92.555229
14300.000000	93.098183
14500.000000	93.901604
14750.000000	95.263565
15000.000000	96.382706
15250.000000	96.322510
15500.000000	95.083794
15750.000000	93.680359
16000.000000	92.705589
16250.000000	92.116089
16500.000000	91.582169
16750.000000	90.869781
17000.000000	89.808350
17250.000000	88.502914
17500.000000	87.237274
17750.000000	86.241364
18000.000000	85.684731
18250.000000	85.594475
18500.000000	85.904579
18750.000000	86.092186
19000.000000	85.979218
19250.000000	85.526237
19500.000000	84.333916
19750.000000	81.744789
