* frequency_hz	amplitude
20.000000	104.362
20.299999	104.351
20.600000	104.339
20.900000	104.326
21.200001	104.311
21.400000	104.302
21.799999	104.283
22.000000	104.274
22.400000	104.255
22.700001	104.240
23.000000	104.223
23.299999	104.204
23.600000	104.185
24.000000	104.160
24.299999	104.141
24.700001	104.118
25.000000	104.100
25.400000	104.077
25.799999	104.053
26.200001	104.030
26.500000	104.012
26.900000	103.988
27.200001	103.967
27.600000	103.938
28.000000	103.907
28.500000	103.872
29.000000	103.843
29.500000	103.815
30.000000	103.779
30.400000	103.745
30.700001	103.718
31.100000	103.682
31.500000	103.649
32.000000	103.609
32.500000	103.570
33.000000	103.529
33.500000	103.487
34.000000	103.447
34.500000	103.408
35.000000	103.368
35.500000	103.328
36.000000	103.286
36.500000	103.244
37.000000	103.202
37.500000	103.160
38.200001	103.102
38.700001	103.059
39.500000	102.990
40.000000	102.948
40.599998	102.896
41.200001	102.842
41.799999	102.789
42.500000	102.729
43.099998	102.674
43.700001	102.616
44.400002	102.554
45.000000	102.506
45.500000	102.467
46.200001	102.405
46.799999	102.350
47.500000	102.290
48.200001	102.233
48.700001	102.189
49.400002	102.125
50.000000	102.071
50.799999	102.003
51.500000	101.941
52.200001	101.877
53.000000	101.809
53.799999	101.742
54.500000	101.681
55.200001	101.623
56.000000	101.554
57.000000	101.465
58.000000	101.383
59.000000	101.300
60.000000	101.214
60.799999	101.145
61.500000	101.082
62.200001	101.022
63.000000	100.959
64.000000	100.876
65.000000	100.789
66.000000	100.711
67.000000	100.630
68.000000	100.548
69.000000	100.468
70.000000	100.387
71.000000	100.307
72.000000	100.231
73.000000	100.149
74.000000	100.068
75.000000	99.992
76.199997	99.899
77.500000	99.799
78.800003	99.701
80.000000	99.610
81.199997	99.520
82.500000	99.424
83.800003	99.327
85.000000	99.240
86.199997	99.153
87.500000	99.062
88.500000	98.993
90.000000	98.888
91.199997	98.806
92.500000	98.717
93.800003	98.627
95.000000	98.548
96.199997	98.469
97.500000	98.385
98.800003	98.300
100.000000	98.223
101.500000	98.127
103.000000	98.032
104.400002	97.944
106.000000	97.847
107.500000	97.756
109.000000	97.667
110.599998	97.572
112.000000	97.489
113.800003	97.382
115.000000	97.315
117.199997	97.197
118.000000	97.144
120.599998	97.027
122.000000	96.926
124.099998	96.809
125.000000	96.766
126.500000	96.684
128.000000	96.613
131.500000	96.455
132.000000	96.432
134.000000	96.338
136.000000	96.243
138.000000	96.150
140.000000	96.055
143.000000	95.911
145.000000	95.820
147.500000	95.712
150.000000	95.608
152.500000	95.523
155.000000	95.461
157.500000	95.409
160.000000	95.360
162.500000	95.293
165.000000	95.212
167.500000	95.125
170.000000	95.035
172.500000	94.946
175.000000	94.861
177.500000	94.780
180.000000	94.712
182.500000	94.644
185.000000	94.589
187.500000	94.538
190.000000	94.476
192.500000	94.405
195.000000	94.333
197.500000	94.260
200.000000	94.193
203.000000	94.109
206.000000	94.027
209.000000	93.950
212.000000	93.877
214.000000	93.828
218.000000	93.737
220.000000	93.687
224.000000	93.600
227.000000	93.538
230.000000	93.473
233.000000	93.406
236.000000	93.350
240.000000	93.290
243.000000	93.214
247.000000	93.138
250.000000	93.085
254.000000	93.016
258.000000	92.960
262.000000	92.907
265.000000	92.871
269.000000	92.815
272.000000	92.776
276.000000	92.718
280.000000	92.666
285.000000	92.599
290.000000	92.534
295.000000	92.471
300.000000	92.399
304.000000	92.369
307.000000	92.334
311.000000	92.287
315.000000	92.248
320.000000	92.191
325.000000	92.148
330.000000	92.098
335.000000	92.053
340.000000	92.009
345.000000	91.979
350.000000	91.949
355.000000	91.923
360.000000	91.883
365.000000	91.875
370.000000	91.845
375.000000	91.815
382.000000	91.770
387.000000	91.740
395.000000	91.694
400.000000	91.668
406.000000	91.635
412.000000	91.604
418.000000	91.574
425.000000	91.540
431.000000	91.516
437.000000	91.496
444.000000	91.467
450.000000	91.443
455.000000	91.427
462.000000	91.404
468.000000	91.383
475.000000	91.362
482.000000	91.342
487.000000	91.331
494.000000	91.311
500.000000	91.298
508.000000	91.282
515.000000	91.264
522.000000	91.251
530.000000	91.241
538.000000	91.224
545.000000	91.211
552.000000	91.203
560.000000	91.191
570.000000	91.183
580.000000	91.180
590.000000	91.171
600.000000	91.181
608.000000	91.167
615.000000	91.166
622.000000	91.165
630.000000	91.167
640.000000	91.167
650.000000	91.170
660.000000	91.190
670.000000	91.178
680.000000	91.182
690.000000	91.186
700.000000	91.191
710.000000	91.202
720.000000	91.199
730.000000	91.221
740.000000	91.234
750.000000	91.249
762.000000	91.269
775.000000	91.290
788.000000	91.319
800.000000	91.347
812.000000	91.378
825.000000	91.413
838.000000	91.458
850.000000	91.496
862.000000	91.542
875.000000	91.596
885.000000	91.639
900.000000	91.726
912.000000	91.771
925.000000	91.844
938.000000	91.915
950.000000	91.988
962.000000	92.065
975.000000	92.155
988.000000	92.242
1000.000000	92.334
1015.000000	92.444
1030.000000	92.563
1044.000000	92.682
1060.000000	92.812
1075.000000	92.934
1090.000000	93.063
1106.000000	93.199
1120.000000	93.320
1138.000000	93.470
1150.000000	93.567
1172.000000	93.747
1180.000000	93.807
1206.000000	93.999
1220.000000	94.102
1241.000000	94.244
1250.000000	94.308
1265.000000	94.409
1280.000000	94.514
1315.000000	94.751
1320.000000	94.782
1340.000000	94.898
1360.000000	94.999
1380.000000	95.101
1400.000000	95.184
1430.000000	95.313
1450.000000	95.393
1475.000000	95.496
1500.000000	95.586
1525.000000	95.685
1550.000000	95.780
1575.000000	95.872
1600.000000	95.966
1625.000000	96.059
1650.000000	96.154
1675.000000	96.247
1700.000000	96.338
1725.000000	96.439
1750.000000	96.547
1775.000000	96.662
1800.000000	96.774
1825.000000	96.890
1850.000000	97.000
1875.000000	97.108
1900.000000	97.218
1925.000000	97.328
1950.000000	97.439
1975.000000	97.549
2000.000000	97.662
2030.000000	97.796
2060.000000	97.935
2090.000000	98.081
2120.000000	98.243
2140.000000	98.359
2180.000000	98.590
2200.000000	98.706
2240.000000	98.933
2270.000000	99.094
2300.000000	99.235
2330.000000	99.358
2360.000000	99.466
2400.000000	99.588
2430.000000	99.667
2470.000000	99.749
2500.000000	99.797
2540.000000	99.849
2580.000000	99.886
2620.000000	99.905
2650.000000	99.905
2690.000000	99.896
2720.000000	99.880
2760.000000	99.853
2800.000000	99.830
2850.000000	99.785
2900.000000	99.726
2950.000000	99.653
3000.000000	99.573
3040.000000	99.504
3070.000000	99.447
3110.000000	99.363
3150.000000	99.272
3200.000000	99.144
3250.000000	99.012
3300.000000	98.902
3350.000000	98.828
3400.000000	98.773
3450.000000	98.717
3500.000000	98.680
3550.000000	98.674
3600.000000	98.695
3650.000000	98.721
3700.000000	98.736
3750.000000	98.753
3820.000000	98.805
3870.000000	98.865
3950.000000	98.957
4000.000000	99.008
4060.000000	99.070
4120.000000	99.139
4180.000000	99.225
4250.000000	99.349
4310.000000	99.454
4370.000000	99.557
4440.000000	99.685
4500.000000	99.803
4550.000000	99.914
4620.000000	100.086
4680.000000	100.244
4750.000000	100.434
4820.000000	100.623
4870.000000	100.752
4940.000000	100.916
5000.000000	101.042
5080.000000	101.174
5150.000000	101.246
5220.000000	101.281
5300.000000	101.274
5380.000000	101.210
5450.000000	101.093
5520.000000	100.901
5600.000000	100.580
5700.000000	100.094
5800.000000	99.586
5900.000000	99.079
6000.000000	98.577
6080.000000	98.199
6150.000000	97.882
6220.000000	97.577
6300.000000	97.259
6400.000000	96.899
6500.000000	96.585
6600.000000	96.329
6700.000000	96.133
6800.000000	96.006
6900.000000	95.955
7000.000000	96.003
7100.000000	96.195
7200.000000	96.613
7300.000000	97.300
7400.000000	98.025
7500.000000	98.358
7620.000000	98.253
7750.000000	98.008
7880.000000	97.788
8000.000000	97.583
8120.000000	97.384
8250.000000	97.209
8380.000000	97.124
8500.000000	97.104
8620.000000	97.076
8750.000000	96.977
8850.000000	96.898
9000.000000	96.847
9120.000000	96.662
9250.000000	96.225
9380.000000	95.813
9500.000000	95.270
9620.000000	94.661
9750.000000	94.122
9880.000000	93.739
10000.000000	93.367
10150.000000	93.026
10300.000000	92.814
10440.000000	92.706
10600.000000	92.701
10750.000000	92.773
10900.000000	92.820
11060.000000	92.800
11200.000000	92.678
11380.000000	92.344
11500.000000	92.042
11720.000000	91.356
11800.000000	91.094
12060.000000	90.265
12200.000000	89.874
12410.000000	89.360
12500.000000	89.175
12650.000000	88.909
12800.000000	88.654
13150.000000	87.974
13200.000000	87.876
13400.000000	87.512
13600.000000	87.162
13800.000000	86.809
14000.000000	86.472
14300.000000	85.875
14500.000000	85.472
14750.000000	84.891
15000.000000	84.302
15250.000000	83.481
15500.000000	82.762
15750.000000	82.127
16000.000000	81.650
16250.000000	81.372
16500.000000	81.359
16750.000000	81.526
17000.000000	81.868
17250.000000	82.389
17500.000000	82.971
17750.000000	83.390
18000.000000	83.393
18250.000000	82.564
18500.000000	81.027
18750.000000	78.777
19000.000000	74.821
19250.000000	72.383
19500.000000	70.742
19750.000000	68.900
