* frequency_hz	amplitude
20.299999	100.325
20.600000	100.324
20.900000	100.320
21.200001	100.315
21.400000	100.312
21.799999	100.306
22.000000	100.306
22.400000	100.311
22.700001	100.318
23.000000	100.327
23.299999	100.332
23.600000	100.330
24.000000	100.314
24.299999	100.293
24.700001	100.259
25.000000	100.235
25.400000	100.211
25.799999	100.198
26.200001	100.193
26.500000	100.190
26.900000	100.182
27.200001	100.172
27.600000	100.152
28.000000	100.128
28.500000	100.098
29.000000	100.070
29.500000	100.041
30.000000	100.011
30.400000	99.985
30.700001	99.966
31.100000	99.942
31.500000	99.922
32.000000	99.901
32.500000	99.884
33.000000	99.869
33.500000	99.853
34.000000	99.836
34.500000	99.819
35.000000	99.802
35.500000	99.786
36.000000	99.772
36.500000	99.760
37.000000	99.750
37.500000	99.736
38.200001	99.708
38.700001	99.688
39.500000	99.665
40.000000	99.650
40.599998	99.632
41.200001	99.624
41.799999	99.630
42.500000	99.636
43.099998	99.625
43.700001	99.604
44.400002	99.577
45.000000	99.545
45.500000	99.514
46.200001	99.484
46.799999	99.478
47.500000	99.479
48.200001	99.473
48.700001	99.474
49.400002	99.486
50.000000	99.489
50.799999	99.474
51.500000	99.468
52.200001	99.473
53.000000	99.461
53.799999	99.428
54.500000	99.405
55.200001	99.386
56.000000	99.372
57.000000	99.390
58.000000	99.394
59.000000	99.351
60.000000	99.338
60.799999	99.302
61.500000	99.265
62.200001	99.289
63.000000	99.358
64.000000	99.355
65.000000	99.304
66.000000	99.260
67.000000	99.220
68.000000	99.256
69.000000	99.287
70.000000	99.251
71.000000	99.239
72.000000	99.255
73.000000	99.258
74.000000	99.248
75.000000	99.225
76.199997	99.192
77.500000	99.201
78.800003	99.217
80.000000	99.149
81.199997	99.110
82.500000	99.113
83.800003	99.088
85.000000	99.054
86.199997	99.016
87.500000	99.060
88.500000	99.056
90.000000	99.075
91.199997	98.997
92.500000	98.986
93.800003	98.975
95.000000	98.972
96.199997	98.913
97.500000	98.909
98.800003	98.847
100.000000	98.859
101.500000	98.826
103.000000	98.817
104.400002	98.709
106.000000	98.693
107.500000	98.682
109.000000	98.630
110.599998	98.568
112.000000	98.519
113.800003	98.545
115.000000	98.474
117.199997	98.446
118.000000	98.428
120.599998	98.394
122.000000	98.391
124.099998	98.292
125.000000	98.277
126.500000	98.218
128.000000	98.159
131.500000	98.096
132.000000	98.083
134.000000	97.990
136.000000	97.995
138.000000	97.960
140.000000	97.860
143.000000	97.765
145.000000	97.707
147.500000	97.656
150.000000	97.568
152.500000	97.462
155.000000	97.404
157.500000	97.287
160.000000	97.297
162.500000	97.235
165.000000	97.089
167.500000	96.982
170.000000	97.020
172.500000	96.865
175.000000	96.865
177.500000	96.797
180.000000	96.684
182.500000	96.596
185.000000	96.553
187.500000	96.518
190.000000	96.432
192.500000	96.352
195.000000	96.279
197.500000	96.177
200.000000	96.151
203.000000	96.098
206.000000	96.047
209.000000	95.917
212.000000	95.825
214.000000	95.827
218.000000	95.760
220.000000	95.739
224.000000	95.699
227.000000	95.651
230.000000	95.693
233.000000	95.630
236.000000	95.550
240.000000	95.514
243.000000	95.558
247.000000	95.484
250.000000	95.432
254.000000	95.372
258.000000	95.388
262.000000	95.348
265.000000	95.351
269.000000	95.292
272.000000	95.306
276.000000	95.348
280.000000	95.380
285.000000	95.421
290.000000	95.445
295.000000	95.484
300.000000	95.498
304.000000	95.466
307.000000	95.527
311.000000	95.545
315.000000	95.580
320.000000	95.586
325.000000	95.636
330.000000	95.599
335.000000	95.612
340.000000	95.724
345.000000	95.685
350.000000	95.652
355.000000	95.713
360.000000	95.731
365.000000	95.729
370.000000	95.752
375.000000	95.806
382.000000	95.833
387.000000	95.781
395.000000	95.787
400.000000	95.838
406.000000	95.782
412.000000	95.803
418.000000	95.825
425.000000	95.837
431.000000	95.815
437.000000	95.785
444.000000	95.780
450.000000	95.739
455.000000	95.660
462.000000	95.748
468.000000	95.740
475.000000	95.713
482.000000	95.753
487.000000	95.668
494.000000	95.697
500.000000	95.718
508.000000	95.704
515.000000	95.684
522.000000	95.709
530.000000	95.692
538.000000	95.719
545.000000	95.655
552.000000	95.657
560.000000	95.663
570.000000	95.628
580.000000	95.628
590.000000	95.665
600.000000	95.631
608.000000	95.578
615.000000	95.588
622.000000	95.568
630.000000	95.569
640.000000	95.545
650.000000	95.531
660.000000	95.463
670.000000	95.437
680.000000	95.407
690.000000	95.363
700.000000	95.328
710.000000	95.238
720.000000	95.198
730.000000	95.191
740.000000	95.099
750.000000	95.058
762.000000	94.958
775.000000	94.877
788.000000	94.855
800.000000	94.797
812.000000	94.744
825.000000	94.634
838.000000	94.607
850.000000	94.497
862.000000	94.475
875.000000	94.449
885.000000	94.402
900.000000	94.353
912.000000	94.374
925.000000	94.376
938.000000	94.410
950.000000	94.367
962.000000	94.384
975.000000	94.443
988.000000	94.469
1000.000000	94.526
1015.000000	94.566
1030.000000	94.673
1044.000000	94.777
1060.000000	94.884
1075.000000	94.930
1090.000000	95.065
1106.000000	95.262
1120.000000	95.367
1138.000000	95.504
1150.000000	95.633
1172.000000	95.889
1180.000000	95.961
1206.000000	96.300
1220.000000	96.382
1241.000000	96.597
1250.000000	96.687
1265.000000	96.868
1280.000000	97.035
1315.000000	97.389
1320.000000	97.434
1340.000000	97.547
1360.000000	97.778
1380.000000	97.938
1400.000000	98.100
1430.000000	98.315
1450.000000	98.410
1475.000000	98.581
1500.000000	98.637
1525.000000	98.767
1550.000000	98.884
1575.000000	98.970
1600.000000	99.016
1625.000000	99.112
1650.000000	99.183
1675.000000	99.211
1700.000000	99.233
1725.000000	99.295
1750.000000	99.347
1775.000000	99.329
1800.000000	99.381
1825.000000	99.434
1850.000000	99.414
1875.000000	99.361
1900.000000	99.494
1925.000000	99.482
1950.000000	99.546
1975.000000	99.559
2000.000000	99.626
2030.000000	99.647
2060.000000	99.707
2090.000000	99.726
2120.000000	99.868
2140.000000	99.900
2180.000000	99.933
2200.000000	99.986
2240.000000	100.114
2270.000000	100.207
2300.000000	100.189
2330.000000	100.249
2360.000000	100.354
2400.000000	100.417
2430.000000	100.482
2470.000000	100.616
2500.000000	100.646
2540.000000	100.735
2580.000000	100.801
2620.000000	100.860
2650.000000	100.892
2690.000000	100.880
2720.000000	100.925
2760.000000	100.873
2800.000000	100.825
2850.000000	100.851
2900.000000	100.768
2950.000000	100.723
3000.000000	100.626
3040.000000	100.669
3070.000000	100.632
3110.000000	100.723
3150.000000	100.787
3200.000000	100.788
3250.000000	100.738
3300.000000	100.776
3350.000000	100.679
3400.000000	100.597
3450.000000	100.488
3500.000000	100.433
3550.000000	100.325
3600.000000	100.210
3650.000000	100.166
3700.000000	100.060
3750.000000	99.930
3820.000000	99.738
3870.000000	99.610
3950.000000	99.439
4000.000000	99.309
4060.000000	99.182
4120.000000	99.119
4180.000000	98.937
4250.000000	98.930
4310.000000	98.798
4370.000000	98.775
4440.000000	98.663
4500.000000	98.595
4550.000000	98.560
4620.000000	98.472
4680.000000	98.507
4750.000000	98.466
4820.000000	98.367
4870.000000	98.428
4940.000000	98.381
5000.000000	98.400
5080.000000	98.416
5150.000000	98.547
5220.000000	98.638
5300.000000	98.783
5380.000000	98.924
5450.000000	99.206
5520.000000	99.376
5600.000000	99.508
5700.000000	99.756
5800.000000	99.894
5900.000000	99.966
6000.000000	99.885
6080.000000	99.760
6150.000000	99.596
6220.000000	99.461
6300.000000	99.251
6400.000000	98.976
6500.000000	98.782
6600.000000	98.556
6700.000000	98.496
6800.000000	98.383
6900.000000	98.337
7000.000000	98.435
7100.000000	98.551
7200.000000	98.747
7300.000000	99.068
7400.000000	99.450
7500.000000	99.865
7620.000000	100.396
7750.000000	100.991
7880.000000	101.378
8000.000000	101.300
8120.000000	100.657
8250.000000	99.634
8380.000000	98.357
8500.000000	97.199
8620.000000	96.057
8750.000000	94.830
8850.000000	93.898
9000.000000	92.586
9120.000000	91.679
9250.000000	90.768
9380.000000	89.948
9500.000000	89.193
9620.000000	88.629
9750.000000	87.812
9880.000000	87.264
10000.000000	86.726
10150.000000	86.130
10300.000000	85.558
10440.000000	85.125
10600.000000	84.665
10750.000000	84.293
10900.000000	83.895
11060.000000	83.597
11200.000000	83.347
11380.000000	83.061
11500.000000	83.008
11720.000000	82.831
11800.000000	82.788
12060.000000	82.912
12200.000000	83.030
12410.000000	83.177
12500.000000	83.279
12650.000000	83.569
12800.000000	83.950
13150.000000	85.093
13200.000000	85.228
13400.000000	86.185
13600.000000	87.524
13800.000000	89.207
14000.000000	91.419
14300.000000	96.181
14500.000000	98.620
14750.000000	94.863
15000.000000	90.273
15250.000000	86.945
15500.000000	84.470
15750.000000	82.559
16000.000000	80.992
16250.000000	79.724
16500.000000	78.651
16750.000000	77.729
17000.000000	67.930
17250.000000	34.144
17500.000000	31.638
17750.000000	28.788
18000.000000	39.402
18250.000000	29.503
18500.000000	36.727
18750.000000	23.368
19000.000000	31.403
19250.000000	35.626
19500.000000	30.193
19750.000000	30.684
