* frequency_hz	amplitude
20.299999	98.620964
20.600000	98.667641
20.900000	98.706024
21.200001	98.742981
21.400000	98.768021
21.799999	98.819153
22.000000	98.844940
22.400000	98.896004
22.700001	98.933205
23.000000	98.968903
23.299999	99.002449
23.600000	99.033234
24.000000	99.069412
24.299999	99.093773
24.700001	99.125290
25.000000	99.150345
25.400000	99.187073
25.799999	99.226006
26.200001	99.263107
26.500000	99.287621
26.900000	99.315208
27.200001	99.332901
27.600000	99.354729
28.000000	99.376541
28.500000	99.405334
29.000000	99.436195
29.500000	99.468483
30.000000	99.499405
30.400000	99.520538
30.700001	99.533432
31.100000	99.547073
31.500000	99.558586
32.000000	99.573471
32.500000	99.590851
33.000000	99.610153
33.500000	99.629745
34.000000	99.647652
34.500000	99.661858
35.000000	99.672577
35.500000	99.683174
36.000000	99.697365
36.500000	99.714523
37.000000	99.729973
37.500000	99.740601
38.200001	99.750977
38.700001	99.758812
39.500000	99.771202
40.000000	99.778191
40.599998	99.787880
41.200001	99.799171
41.799999	99.810760
42.500000	99.824997
43.099998	99.836266
43.700001	99.841499
44.400002	99.839607
45.000000	99.839142
45.500000	99.843826
46.200001	99.854103
46.799999	99.857674
47.500000	99.853142
48.200001	99.850166
48.700001	99.851654
49.400002	99.849739
50.000000	99.844398
50.799999	99.850166
51.500000	99.858665
52.200001	99.848763
53.000000	99.840919
53.799999	99.853897
54.500000	99.849800
55.200001	99.839142
56.000000	99.847740
57.000000	99.835655
58.000000	99.815910
59.000000	99.826019
60.000000	99.799652
60.799999	99.791779
61.500000	99.802963
62.200001	99.797974
63.000000	99.771797
64.000000	99.771347
65.000000	99.780907
66.000000	99.749947
67.000000	99.741653
68.000000	99.747543
69.000000	99.725533
70.000000	99.699524
71.000000	99.694389
72.000000	99.694870
73.000000	99.675957
74.000000	99.644981
75.000000	99.630791
76.199997	99.640114
77.500000	99.604889
78.800003	99.576965
80.000000	99.570053
81.199997	99.566391
82.500000	99.525146
83.800003	99.509285
85.000000	99.492111
86.199997	99.475815
87.500000	99.452843
88.500000	99.433830
90.000000	99.403610
91.199997	99.379921
92.500000	99.354881
93.800003	99.338470
95.000000	99.311592
96.199997	99.289871
97.500000	99.276192
98.800003	99.255898
100.000000	99.221092
101.500000	99.183533
103.000000	99.150894
104.400002	99.126312
106.000000	99.089310
107.500000	99.057388
109.000000	99.027817
110.599998	98.998581
112.000000	98.971786
113.800003	98.924118
115.000000	98.902542
117.199997	98.859032
118.000000	98.838631
120.599998	98.790901
122.000000	98.741104
124.099998	98.696808
125.000000	98.672165
126.500000	98.632812
128.000000	98.615631
131.500000	98.513268
132.000000	98.490921
134.000000	98.437691
136.000000	98.377518
138.000000	98.305847
140.000000	98.249313
143.000000	98.148384
145.000000	98.092209
147.500000	98.114624
150.000000	98.100998
152.500000	98.061661
155.000000	98.055382
157.500000	97.995499
160.000000	97.948090
162.500000	97.921562
165.000000	97.844299
167.500000	97.780479
170.000000	97.722229
172.500000	97.634949
175.000000	97.590904
177.500000	97.564903
180.000000	97.360634
182.500000	97.458374
185.000000	97.398674
187.500000	97.374046
190.000000	97.328850
192.500000	97.286301
195.000000	97.241821
197.500000	97.196327
200.000000	97.140991
203.000000	97.080963
206.000000	97.018494
209.000000	96.978096
212.000000	96.929314
214.000000	96.882286
218.000000	96.801949
220.000000	96.773804
224.000000	96.685539
227.000000	96.623505
230.000000	96.574982
233.000000	96.507004
236.000000	96.442421
240.000000	96.323990
243.000000	96.316017
247.000000	96.233444
250.000000	96.179382
254.000000	96.104378
258.000000	96.037003
262.000000	95.952118
265.000000	95.901443
269.000000	95.827896
272.000000	95.777161
276.000000	95.686333
280.000000	95.631149
285.000000	95.543091
290.000000	95.449226
295.000000	95.363083
300.000000	95.272079
304.000000	95.211655
307.000000	95.155304
311.000000	95.086533
315.000000	95.028534
320.000000	94.954048
325.000000	94.884819
330.000000	94.802208
335.000000	94.751869
340.000000	94.691719
345.000000	94.622856
350.000000	94.551605
355.000000	94.485214
360.000000	94.416351
365.000000	94.347473
370.000000	94.277351
375.000000	94.207642
382.000000	94.118729
387.000000	94.051476
395.000000	93.948624
400.000000	93.885880
406.000000	93.806732
412.000000	93.738411
418.000000	93.661888
425.000000	93.584114
431.000000	93.506805
437.000000	93.436310
444.000000	93.371521
450.000000	93.303085
455.000000	93.248505
462.000000	93.172134
468.000000	93.111511
475.000000	93.035309
482.000000	92.970932
487.000000	92.921204
494.000000	92.850861
500.000000	92.799187
508.000000	92.719505
515.000000	92.659981
522.000000	92.591698
530.000000	92.526588
538.000000	92.462959
545.000000	92.403824
552.000000	92.344643
560.000000	92.283783
570.000000	92.204788
580.000000	92.130348
590.000000	92.061455
600.000000	91.988022
608.000000	91.942528
615.000000	91.897369
622.000000	91.855530
630.000000	91.798653
640.000000	91.737419
650.000000	91.680565
660.000000	91.624924
670.000000	91.575500
680.000000	91.527313
690.000000	91.484131
700.000000	91.429932
710.000000	91.386368
720.000000	91.350540
730.000000	91.309715
740.000000	91.275520
750.000000	91.244347
762.000000	91.212952
775.000000	91.175507
788.000000	91.154625
800.000000	91.134781
812.000000	91.111740
825.000000	91.102951
838.000000	91.105949
850.000000	91.106117
862.000000	91.120384
875.000000	91.136162
885.000000	91.149918
900.000000	91.168640
912.000000	91.209351
925.000000	91.242859
938.000000	91.281532
950.000000	91.324524
962.000000	91.377785
975.000000	91.435760
988.000000	91.498413
1000.000000	91.564003
1015.000000	91.654915
1030.000000	91.750885
1044.000000	91.848083
1060.000000	91.963470
1075.000000	92.075981
1090.000000	92.190002
1106.000000	92.318398
1120.000000	92.441299
1138.000000	92.586838
1150.000000	92.688217
1172.000000	92.869095
1180.000000	92.938309
1206.000000	93.152512
1220.000000	93.265305
1241.000000	93.433762
1250.000000	93.502350
1265.000000	93.609688
1280.000000	93.719971
1315.000000	93.963257
1320.000000	93.988335
1340.000000	94.125145
1360.000000	94.245926
1380.000000	94.366928
1400.000000	94.474121
1430.000000	94.632095
1450.000000	94.737015
1475.000000	94.854149
1500.000000	94.967575
1525.000000	95.083420
1550.000000	95.189697
1575.000000	95.297409
1600.000000	95.402786
1625.000000	95.505653
1650.000000	95.612343
1675.000000	95.719093
1700.000000	95.824631
1725.000000	95.934563
1750.000000	96.042511
1775.000000	96.153320
1800.000000	96.263733
1825.000000	96.379395
1850.000000	96.493858
1875.000000	96.615150
1900.000000	96.735260
1925.000000	96.858765
1950.000000	96.987251
1975.000000	97.111061
2000.000000	97.238846
2030.000000	97.396225
2060.000000	97.556160
2090.000000	97.714249
2120.000000	97.879608
2140.000000	97.995384
2180.000000	98.232498
2200.000000	98.352936
2240.000000	98.593506
2270.000000	98.766891
2300.000000	98.937790
2330.000000	99.105377
2360.000000	99.269234
2400.000000	99.482811
2430.000000	99.638466
2470.000000	99.848610
2500.000000	99.998543
2540.000000	100.190903
2580.000000	100.376595
2620.000000	100.547653
2650.000000	100.668861
2690.000000	100.816933
2720.000000	100.918930
2760.000000	101.046043
2800.000000	101.157776
2850.000000	101.279411
2900.000000	101.382912
2950.000000	101.469040
3000.000000	101.539093
3040.000000	101.588737
3070.000000	101.618744
3110.000000	101.654922
3150.000000	101.685547
3200.000000	101.722023
3250.000000	101.757942
3300.000000	101.795837
3350.000000	101.830070
3400.000000	101.858253
3450.000000	101.879219
3500.000000	101.896591
3550.000000	101.907578
3600.000000	101.914169
3650.000000	101.920906
3700.000000	101.933365
3750.000000	101.958603
3820.000000	102.025452
3870.000000	102.096298
3950.000000	102.230843
4000.000000	102.315948
4060.000000	102.415436
4120.000000	102.514488
4180.000000	102.619080
4250.000000	102.754044
4310.000000	102.879280
4370.000000	103.011360
4440.000000	103.166611
4500.000000	103.300774
4550.000000	103.414459
4620.000000	103.578255
4680.000000	103.726990
4750.000000	103.911148
4820.000000	104.103302
4870.000000	104.238106
4940.000000	104.416519
5000.000000	104.551865
5080.000000	104.701096
5150.000000	104.786072
5220.000000	104.818604
5300.000000	104.779877
5380.000000	104.729309
5450.000000	104.775764
5520.000000	104.872757
5600.000000	104.912689
5700.000000	104.804756
5800.000000	104.574081
5900.000000	104.266518
6000.000000	103.917061
6080.000000	103.628433
6150.000000	103.373909
6220.000000	103.129013
6300.000000	102.860603
6400.000000	102.559845
6500.000000	102.301468
6600.000000	102.082542
6700.000000	101.913177
6800.000000	101.785202
6900.000000	101.707657
7000.000000	101.687775
7100.000000	101.748528
7200.000000	101.906052
7300.000000	102.163628
7400.000000	102.511093
7500.000000	102.940445
7620.000000	103.554916
7750.000000	104.293045
7880.000000	104.980461
8000.000000	105.355621
8120.000000	105.258514
8250.000000	104.538986
8380.000000	103.357437
8500.000000	102.070465
8620.000000	100.719597
8750.000000	99.267334
8850.000000	98.195000
9000.000000	96.701797
9120.000000	95.615883
9250.000000	94.544830
9380.000000	93.568764
9500.000000	92.763924
9620.000000	92.038330
9750.000000	91.315765
9880.000000	90.663452
10000.000000	90.130783
10150.000000	89.538719
10300.000000	89.017761
10440.000000	88.595688
10600.000000	88.184509
10750.000000	87.823929
10900.000000	87.571930
11060.000000	87.357056
11200.000000	87.230072
11380.000000	87.175568
11500.000000	87.132286
11720.000000	87.216820
11800.000000	87.268723
12060.000000	87.617363
12200.000000	87.876083
12410.000000	88.436951
12500.000000	88.705719
12650.000000	89.252434
12800.000000	89.907181
13150.000000	91.911957
13200.000000	92.261940
13400.000000	93.817001
13600.000000	95.596581
13800.000000	97.455544
14000.000000	98.884308
14300.000000	99.038628
14500.000000	98.080215
14750.000000	96.658188
15000.000000	95.527496
15250.000000	94.789810
15500.000000	94.448997
15750.000000	94.449402
16000.000000	94.731323
16250.000000	95.096413
16500.000000	95.134361
16750.000000	94.438721
17000.000000	92.995895
17250.000000	91.246536
17500.000000	89.440102
17750.000000	87.553024
18000.000000	85.262917
18250.000000	81.721184
18500.000000	76.882645
18750.000000	77.554794
19000.000000	78.965233
19250.000000	78.923370
19500.000000	77.802994
19750.000000	75.637474
