* frequency_hz	amplitude
20.000000	108.356140
20.299999	108.330696
20.600000	108.305145
20.900000	108.278450
21.200001	108.249542
21.400000	108.228699
21.799999	108.184166
22.000000	108.161377
22.400000	108.117325
22.700001	108.087685
23.000000	108.061371
23.299999	108.037270
23.600000	108.013252
24.000000	107.977188
24.299999	107.945488
24.700001	107.897568
25.000000	107.859795
25.400000	107.810867
25.799999	107.766190
26.200001	107.724907
26.500000	107.694176
26.900000	107.650917
27.200001	107.616066
27.600000	107.567513
28.000000	107.519043
28.500000	107.461884
29.000000	107.408249
29.500000	107.354256
30.000000	107.296524
30.400000	107.248116
30.700001	107.211800
31.100000	107.164932
31.500000	107.120369
32.000000	107.066040
32.500000	107.009827
33.000000	106.950439
33.500000	106.890358
34.000000	106.832962
34.500000	106.778503
35.000000	106.723999
35.500000	106.667099
36.000000	106.608551
36.500000	106.550705
37.000000	106.494278
37.500000	106.437958
38.200001	106.357620
38.700001	106.300430
39.500000	106.211464
40.000000	106.155899
40.599998	106.087631
41.200001	106.018486
41.799999	105.950317
42.500000	105.873375
43.099998	105.809097
43.700001	105.744873
44.400002	105.669495
45.000000	105.605652
45.500000	105.552330
46.200001	105.474335
46.799999	105.405289
47.500000	105.329361
48.200001	105.259003
48.700001	105.206787
49.400002	105.128036
50.000000	105.060844
50.799999	104.978355
51.500000	104.910988
52.200001	104.845879
53.000000	104.769043
53.799999	104.683586
54.500000	104.606766
55.200001	104.534149
56.000000	104.455666
57.000000	104.360825
58.000000	104.261421
59.000000	104.159897
60.000000	104.063255
60.799999	103.982361
61.500000	103.911880
62.200001	103.846603
63.000000	103.777138
64.000000	103.689339
65.000000	103.594925
66.000000	103.500069
67.000000	103.412819
68.000000	103.327187
69.000000	103.230965
70.000000	103.143784
71.000000	103.061630
72.000000	102.968369
73.000000	102.882950
74.000000	102.800644
75.000000	102.715622
76.199997	102.612930
77.500000	102.493256
78.800003	102.396332
80.000000	102.298912
81.199997	102.189682
82.500000	102.089432
83.800003	101.992928
85.000000	101.907265
86.199997	101.793564
87.500000	101.700249
88.500000	101.629616
90.000000	101.522202
91.199997	101.415291
92.500000	101.348869
93.800003	101.251869
95.000000	101.193405
96.199997	101.116974
97.500000	101.053078
98.800003	100.958359
100.000000	100.918663
101.500000	100.773178
103.000000	100.711533
104.400002	100.609238
106.000000	100.513298
107.500000	100.421120
109.000000	100.316132
110.599998	100.211243
112.000000	100.112030
113.800003	100.004242
115.000000	99.932236
117.199997	99.796364
118.000000	99.754601
120.599998	99.588074
122.000000	99.497314
124.099998	99.371506
125.000000	99.318390
126.500000	99.232971
128.000000	99.145050
131.500000	98.930206
132.000000	98.898087
134.000000	98.778908
136.000000	98.670784
138.000000	98.567116
140.000000	98.475624
143.000000	98.366875
145.000000	98.316811
147.500000	98.260094
150.000000	98.183853
152.500000	98.100624
155.000000	98.014709
157.500000	97.928131
160.000000	97.839325
162.500000	97.750679
165.000000	97.661880
167.500000	97.573219
170.000000	97.479553
172.500000	97.378944
175.000000	97.277519
177.500000	97.175156
180.000000	97.077698
182.500000	96.977600
185.000000	96.878334
187.500000	96.780792
190.000000	96.690994
192.500000	96.595901
195.000000	96.500145
197.500000	96.414070
200.000000	96.325066
203.000000	96.218002
206.000000	96.116722
209.000000	96.015373
212.000000	95.915787
214.000000	95.850136
218.000000	95.722183
220.000000	95.657280
224.000000	95.528076
227.000000	95.434570
230.000000	95.343231
233.000000	95.253952
236.000000	95.166122
240.000000	95.064743
243.000000	94.983147
247.000000	94.895988
250.000000	94.842651
254.000000	94.776985
258.000000	94.708641
262.000000	94.635834
265.000000	94.573250
269.000000	94.484520
272.000000	94.416962
276.000000	94.324539
280.000000	94.232300
285.000000	94.119774
290.000000	94.011253
295.000000	93.918076
300.000000	93.843613
304.000000	93.799484
307.000000	93.768059
311.000000	93.717361
315.000000	93.654518
320.000000	93.566849
325.000000	93.474754
330.000000	93.387329
335.000000	93.299683
340.000000	93.218674
345.000000	93.133972
350.000000	93.054619
355.000000	92.978088
360.000000	92.903625
365.000000	92.830338
370.000000	92.756729
375.000000	92.686745
382.000000	92.586205
387.000000	92.521454
395.000000	92.409004
400.000000	92.348648
406.000000	92.267792
412.000000	92.188110
418.000000	92.112480
425.000000	92.026848
431.000000	91.952759
437.000000	91.884872
444.000000	91.801765
450.000000	91.735199
455.000000	91.682404
462.000000	91.606842
468.000000	91.546761
475.000000	91.477150
482.000000	91.410515
487.000000	91.370056
494.000000	91.307220
500.000000	91.255486
508.000000	91.193306
515.000000	91.138397
522.000000	91.087036
530.000000	91.025681
538.000000	90.974274
545.000000	90.928322
552.000000	90.885712
560.000000	90.837593
570.000000	90.781471
580.000000	90.730286
590.000000	90.680923
600.000000	90.640999
608.000000	90.603539
615.000000	90.573166
622.000000	90.546814
630.000000	90.519623
640.000000	90.486145
650.000000	90.458160
660.000000	90.429527
670.000000	90.412064
680.000000	90.391220
690.000000	90.376701
700.000000	90.363556
710.000000	90.352844
720.000000	90.352127
730.000000	90.347519
740.000000	90.347435
750.000000	90.350372
762.000000	90.358521
775.000000	90.374115
788.000000	90.391258
800.000000	90.412956
812.000000	90.442444
825.000000	90.472061
838.000000	90.512039
850.000000	90.552139
862.000000	90.593819
875.000000	90.650208
885.000000	90.695320
900.000000	90.761475
912.000000	90.825287
925.000000	90.895882
938.000000	90.968292
950.000000	91.036301
962.000000	91.115631
975.000000	91.197769
988.000000	91.283951
1000.000000	91.372261
1015.000000	91.477234
1030.000000	91.583344
1044.000000	91.686569
1060.000000	91.809158
1075.000000	91.922066
1090.000000	92.035065
1106.000000	92.159767
1120.000000	92.268684
1138.000000	92.400009
1150.000000	92.490486
1172.000000	92.647018
1180.000000	92.702042
1206.000000	92.880051
1220.000000	92.971832
1241.000000	93.104645
1250.000000	93.155769
1265.000000	93.245995
1280.000000	93.333313
1315.000000	93.523239
1320.000000	93.545784
1340.000000	93.649971
1360.000000	93.746216
1380.000000	93.840820
1400.000000	93.926254
1430.000000	94.059746
1450.000000	94.144302
1475.000000	94.250549
1500.000000	94.350677
1525.000000	94.453568
1550.000000	94.556305
1575.000000	94.659805
1600.000000	94.760330
1625.000000	94.859184
1650.000000	94.962677
1675.000000	95.068497
1700.000000	95.170952
1725.000000	95.277351
1750.000000	95.383072
1775.000000	95.488144
1800.000000	95.593842
1825.000000	95.703957
1850.000000	95.806648
1875.000000	95.916801
1900.000000	96.021889
1925.000000	96.128250
1950.000000	96.234680
1975.000000	96.339630
2000.000000	96.443169
2030.000000	96.563995
2060.000000	96.683792
2090.000000	96.797287
2120.000000	96.907532
2140.000000	96.980576
2180.000000	97.118851
2200.000000	97.185310
2240.000000	97.309883
2270.000000	97.396561
2300.000000	97.479324
2330.000000	97.556320
2360.000000	97.623894
2400.000000	97.703751
2430.000000	97.758102
2470.000000	97.822495
2500.000000	97.861603
2540.000000	97.905930
2580.000000	97.938591
2620.000000	97.965881
2650.000000	97.977417
2690.000000	97.993439
2720.000000	97.994263
2760.000000	97.999580
2800.000000	97.997139
2850.000000	97.988327
2900.000000	97.977478
2950.000000	97.963326
3000.000000	97.945335
3040.000000	97.931969
3070.000000	97.922379
3110.000000	97.906334
3150.000000	97.889038
3200.000000	97.870239
3250.000000	97.847168
3300.000000	97.818298
3350.000000	97.785934
3400.000000	97.746384
3450.000000	97.699234
3500.000000	97.655190
3550.000000	97.614296
3600.000000	97.597473
3650.000000	97.596237
3700.000000	97.597794
3750.000000	97.593781
3820.000000	97.554382
3870.000000	97.513649
3950.000000	97.427101
4000.000000	97.369453
4060.000000	97.297020
4120.000000	97.253616
4180.000000	97.230103
4250.000000	97.172142
4310.000000	97.104416
4370.000000	97.020203
4440.000000	96.914970
4500.000000	96.820663
4550.000000	96.735321
4620.000000	96.603516
4680.000000	96.482803
4750.000000	96.333603
4820.000000	96.173737
4870.000000	96.054688
4940.000000	95.881378
5000.000000	95.733322
5080.000000	95.520020
5150.000000	95.328552
5220.000000	95.138153
5300.000000	94.905350
5380.000000	94.671417
5450.000000	94.462227
5520.000000	94.253448
5600.000000	94.026077
5700.000000	93.755798
5800.000000	93.503250
5900.000000	93.265381
6000.000000	93.047668
6080.000000	92.878838
6150.000000	92.738289
6220.000000	92.619400
6300.000000	92.486313
6400.000000	92.365051
6500.000000	92.280861
6600.000000	92.247498
6700.000000	92.270706
6800.000000	92.338783
6900.000000	92.464294
7000.000000	92.634499
7100.000000	92.873444
7200.000000	93.165833
7300.000000	93.525482
7400.000000	93.928635
7500.000000	94.373299
7620.000000	94.948761
7750.000000	95.578171
7880.000000	96.077698
8000.000000	96.308838
8120.000000	96.214966
8250.000000	95.754097
8380.000000	95.011398
8500.000000	94.183998
8620.000000	93.259003
8750.000000	92.183609
8850.000000	91.335625
9000.000000	90.078506
9120.000000	89.131805
9250.000000	88.182587
9380.000000	87.289207
9500.000000	86.561882
9620.000000	85.878403
9750.000000	85.235924
9880.000000	84.668182
10000.000000	84.219406
10150.000000	83.631805
10300.000000	83.206924
10440.000000	82.864639
10600.000000	82.599457
10750.000000	82.672943
10900.000000	82.865280
11060.000000	83.212013
11200.000000	83.662720
11380.000000	84.383698
11500.000000	84.899002
11720.000000	85.919373
11800.000000	86.298126
12060.000000	87.688324
12200.000000	88.588577
12410.000000	90.194290
12500.000000	90.964203
12650.000000	92.397141
12800.000000	93.858437
13150.000000	94.969925
13200.000000	94.661926
13400.000000	92.723511
13600.000000	90.576675
13800.000000	88.707954
14000.000000	87.164734
14300.000000	85.455826
14500.000000	84.637695
14750.000000	83.931778
15000.000000	83.498024
15250.000000	83.373116
15500.000000	83.425461
15750.000000	83.639145
16000.000000	83.895081
16250.000000	83.941299
16500.000000	83.557259
16750.000000	82.596519
17000.000000	81.268166
17250.000000	79.796661
17500.000000	78.373085
17750.000000	77.034119
18000.000000	75.878365
18250.000000	74.947525
18500.000000	74.205017
18750.000000	73.534836
19000.000000	73.010490
19250.000000	72.500946
19500.000000	71.631279
19750.000000	69.847488
