* frequency_hz	amplitude
20.299999	102.703644
20.600000	102.693558
20.900000	102.676773
21.200001	102.656372
21.400000	102.641006
21.799999	102.606728
22.000000	102.588547
22.400000	102.552452
22.700001	102.527916
23.000000	102.506615
23.299999	102.488312
23.600000	102.471695
24.000000	102.449020
24.299999	102.429916
24.700001	102.401222
25.000000	102.378380
25.400000	102.348488
25.799999	102.321144
26.200001	102.296181
26.500000	102.277657
26.900000	102.250679
27.200001	102.227425
27.600000	102.192177
28.000000	102.153908
28.500000	102.106796
29.000000	102.064743
29.500000	102.026718
30.000000	101.987427
30.400000	101.952469
30.700001	101.924271
31.100000	101.885384
31.500000	101.847046
32.000000	101.801788
32.500000	101.759354
33.000000	101.717896
33.500000	101.675697
34.000000	101.632034
34.500000	101.587143
35.000000	101.541779
35.500000	101.496277
36.000000	101.450180
36.500000	101.402863
37.000000	101.354805
37.500000	101.307648
38.200001	101.245651
38.700001	101.203468
39.500000	101.133652
40.000000	101.087074
40.599998	101.030350
41.200001	100.975113
41.799999	100.920677
42.500000	100.855782
43.099998	100.799965
43.700001	100.745941
44.400002	100.683517
45.000000	100.627831
45.500000	100.580406
46.200001	100.515488
46.799999	100.461685
47.500000	100.398087
48.200001	100.332764
48.700001	100.286697
49.400002	100.224518
50.000000	100.172134
50.799999	100.100739
51.500000	100.036148
52.200001	99.971748
53.000000	99.901527
53.799999	99.831406
54.500000	99.768669
55.200001	99.708405
56.000000	99.637466
57.000000	99.549606
58.000000	99.476959
59.000000	99.356094
60.000000	99.249695
60.799999	99.213272
61.500000	99.165253
62.200001	99.101906
63.000000	99.039948
64.000000	98.956726
65.000000	98.869644
66.000000	98.791122
67.000000	98.706398
68.000000	98.626892
69.000000	98.546242
70.000000	98.466209
71.000000	98.385750
72.000000	98.298241
73.000000	98.220879
74.000000	98.150284
75.000000	98.069351
76.199997	97.985115
77.500000	97.879181
78.800003	97.789413
80.000000	97.691818
81.199997	97.608841
82.500000	97.512939
83.800003	97.419800
85.000000	97.334244
86.199997	97.249268
87.500000	97.162231
88.500000	97.096642
90.000000	96.986160
91.199997	96.902908
92.500000	96.812447
93.800003	96.731178
95.000000	96.648895
96.199997	96.577339
97.500000	96.484444
98.800003	96.411453
100.000000	96.332352
101.500000	96.236488
103.000000	96.146782
104.400002	96.059937
106.000000	95.963806
107.500000	95.875137
109.000000	95.790421
110.599998	95.693390
112.000000	95.615837
113.800003	95.515320
115.000000	95.446114
117.199997	95.324905
118.000000	95.281319
120.599998	95.142990
122.000000	95.073456
124.099998	94.964211
125.000000	94.914711
126.500000	94.840256
128.000000	94.765167
131.500000	94.596603
132.000000	94.571854
134.000000	94.480591
136.000000	94.382103
138.000000	94.292122
140.000000	94.199905
143.000000	94.073273
145.000000	93.974480
147.500000	93.880821
150.000000	93.769012
152.500000	93.671631
155.000000	93.560104
157.500000	93.467804
160.000000	93.338959
162.500000	93.305252
165.000000	93.193665
167.500000	93.106941
170.000000	93.008957
172.500000	92.916412
175.000000	92.834167
177.500000	92.738220
180.000000	92.637238
182.500000	92.569519
185.000000	92.484634
187.500000	92.397552
190.000000	92.315941
192.500000	92.230827
195.000000	92.162537
197.500000	92.093987
200.000000	92.066933
203.000000	92.046829
206.000000	92.050934
209.000000	92.055428
212.000000	92.027504
214.000000	92.026711
218.000000	91.975815
220.000000	91.965210
224.000000	91.912010
227.000000	91.863647
230.000000	91.808212
233.000000	91.765450
236.000000	91.714096
240.000000	91.698593
243.000000	91.622971
247.000000	91.543625
250.000000	91.502998
254.000000	91.443985
258.000000	91.392082
262.000000	91.339874
265.000000	91.302917
269.000000	91.252144
272.000000	91.222572
276.000000	91.172112
280.000000	91.130981
285.000000	91.078102
290.000000	91.032585
295.000000	90.988037
300.000000	90.943878
304.000000	90.906570
307.000000	90.883255
311.000000	90.847542
315.000000	90.829132
320.000000	90.797119
325.000000	90.770927
330.000000	90.725624
335.000000	90.699059
340.000000	90.674583
345.000000	90.647240
350.000000	90.618690
355.000000	90.596397
360.000000	90.575813
365.000000	90.552917
370.000000	90.530777
375.000000	90.512619
382.000000	90.482864
387.000000	90.469650
395.000000	90.434509
400.000000	90.418114
406.000000	90.398842
412.000000	90.391693
418.000000	90.412445
425.000000	90.462151
431.000000	90.494171
437.000000	90.506966
444.000000	90.503593
450.000000	90.494690
455.000000	90.486053
462.000000	90.472992
468.000000	90.464165
475.000000	90.450661
482.000000	90.452866
487.000000	90.449539
494.000000	90.462845
500.000000	90.464447
508.000000	90.473274
515.000000	90.473953
522.000000	90.478683
530.000000	90.480064
538.000000	90.486862
545.000000	90.488640
552.000000	90.482689
560.000000	90.490005
570.000000	90.495193
580.000000	90.505112
590.000000	90.507866
600.000000	90.515526
608.000000	90.520973
615.000000	90.526802
622.000000	90.525726
630.000000	90.527458
640.000000	90.499939
650.000000	90.462471
660.000000	90.434113
670.000000	90.433517
680.000000	90.443298
690.000000	90.460335
700.000000	90.473343
710.000000	90.497643
720.000000	90.516830
730.000000	90.533897
740.000000	90.553474
750.000000	90.578293
762.000000	90.600922
775.000000	90.630600
788.000000	90.659233
800.000000	90.691856
812.000000	90.723770
825.000000	90.766472
838.000000	90.803337
850.000000	90.846443
862.000000	90.894310
875.000000	90.941017
885.000000	90.984970
900.000000	91.025993
912.000000	91.107742
925.000000	91.174797
938.000000	91.245056
950.000000	91.312431
962.000000	91.391708
975.000000	91.470657
988.000000	91.553802
1000.000000	91.640846
1015.000000	91.744202
1030.000000	91.861313
1044.000000	91.966934
1060.000000	92.092880
1075.000000	92.214508
1090.000000	92.335876
1106.000000	92.463455
1120.000000	92.580673
1138.000000	92.725578
1150.000000	92.820381
1172.000000	92.989845
1180.000000	93.050636
1206.000000	93.243912
1220.000000	93.343414
1241.000000	93.487396
1250.000000	93.548508
1265.000000	93.640602
1280.000000	93.731453
1315.000000	93.928490
1320.000000	93.958160
1340.000000	94.058586
1360.000000	94.158333
1380.000000	94.254349
1400.000000	94.337677
1430.000000	94.464401
1450.000000	94.543320
1475.000000	94.639969
1500.000000	94.736801
1525.000000	94.830063
1550.000000	94.923332
1575.000000	95.014053
1600.000000	95.103821
1625.000000	95.200142
1650.000000	95.291809
1675.000000	95.384956
1700.000000	95.485870
1725.000000	95.582520
1750.000000	95.684792
1775.000000	95.786179
1800.000000	95.891945
1825.000000	96.000992
1850.000000	96.110916
1875.000000	96.221184
1900.000000	96.334190
1925.000000	96.452988
1950.000000	96.571747
1975.000000	96.693954
2000.000000	96.815872
2030.000000	96.968506
2060.000000	97.125549
2090.000000	97.275902
2120.000000	97.434174
2140.000000	97.539993
2180.000000	97.752090
2200.000000	97.857109
2240.000000	98.071075
2270.000000	98.227608
2300.000000	98.384933
2330.000000	98.536903
2360.000000	98.686310
2400.000000	98.881958
2430.000000	99.023911
2470.000000	99.200134
2500.000000	99.325684
2540.000000	99.476746
2580.000000	99.612785
2620.000000	99.733276
2650.000000	99.810364
2690.000000	99.902641
2720.000000	99.958015
2760.000000	100.015411
2800.000000	100.052887
2850.000000	100.076683
2900.000000	100.069000
2950.000000	100.041679
3000.000000	99.993546
3040.000000	99.944580
3070.000000	99.900787
3110.000000	99.839470
3150.000000	99.779068
3200.000000	99.699768
3250.000000	99.606827
3300.000000	99.516266
3350.000000	99.424713
3400.000000	99.342461
3450.000000	99.295921
3500.000000	99.272415
3550.000000	99.260902
3600.000000	99.260307
3650.000000	99.254875
3700.000000	99.247360
3750.000000	99.244827
3820.000000	99.245033
3870.000000	99.253952
3950.000000	99.282623
4000.000000	99.308273
4060.000000	99.328316
4120.000000	99.349716
4180.000000	99.364182
4250.000000	99.398422
4310.000000	99.452003
4370.000000	99.522667
4440.000000	99.611465
4500.000000	99.684280
4550.000000	99.741592
4620.000000	99.809959
4680.000000	99.855240
4750.000000	99.888321
4820.000000	99.895767
4870.000000	99.883720
4940.000000	99.836182
5000.000000	99.771278
5080.000000	99.644089
5150.000000	99.499825
5220.000000	99.327927
5300.000000	99.101883
5380.000000	98.857010
5450.000000	98.637894
5520.000000	98.410873
5600.000000	98.156296
5700.000000	97.856125
5800.000000	97.576866
5900.000000	97.326767
6000.000000	97.107002
6080.000000	96.964310
6150.000000	96.852898
6220.000000	96.756073
6300.000000	96.665741
6400.000000	96.575981
6500.000000	96.508087
6600.000000	96.459259
6700.000000	96.427895
6800.000000	96.389320
6900.000000	96.346924
7000.000000	96.306206
7100.000000	96.275742
7200.000000	96.265244
7300.000000	96.304474
7400.000000	96.404457
7500.000000	96.547424
7620.000000	96.745155
7750.000000	96.959694
7880.000000	97.090759
8000.000000	97.088547
8120.000000	96.945503
8250.000000	96.647644
8380.000000	96.242805
8500.000000	95.814636
8620.000000	95.338623
8750.000000	94.799904
8850.000000	94.379013
9000.000000	93.780464
9120.000000	93.348518
9250.000000	92.920486
9380.000000	92.502487
9500.000000	92.144653
9620.000000	91.782173
9750.000000	91.397888
9880.000000	90.997559
10000.000000	90.674088
10150.000000	90.289871
10300.000000	90.024117
10440.000000	89.880806
10600.000000	89.840523
10750.000000	89.916122
10900.000000	90.247086
11060.000000	90.962547
11200.000000	91.753166
11380.000000	92.871841
11500.000000	93.563667
11720.000000	94.509239
11800.000000	94.677597
12060.000000	94.410011
12200.000000	93.892578
12410.000000	92.954361
12500.000000	92.566559
12650.000000	91.996483
12800.000000	91.538544
13150.000000	91.038742
13200.000000	91.044289
13400.000000	91.264679
13600.000000	91.840393
13800.000000	92.549294
14000.000000	93.170807
14300.000000	93.726120
14500.000000	93.950150
14750.000000	94.037926
15000.000000	94.048904
15250.000000	93.752411
15500.000000	93.596313
15750.000000	93.422829
16000.000000	92.901398
16250.000000	91.554565
16500.000000	89.380585
16750.000000	87.877228
17000.000000	88.093147
17250.000000	88.639603
17500.000000	88.800171
17750.000000	88.372208
18000.000000	87.313522
18250.000000	85.771027
18500.000000	83.991409
18750.000000	82.304840
19000.000000	80.561562
19250.000000	78.845551
19500.000000	77.088661
19750.000000	75.113106
