* frequency_hz	amplitude
20.000000	97.902206
20.299999	97.940430
20.600000	97.983101
20.900000	98.033028
21.200001	98.087517
21.400000	98.122787
21.799999	98.180748
22.000000	98.200867
22.400000	98.225311
22.700001	98.237511
23.000000	98.253052
23.299999	98.277405
23.600000	98.311447
24.000000	98.364944
24.299999	98.403931
24.700001	98.448074
25.000000	98.476204
25.400000	98.512390
25.799999	98.551620
26.200001	98.591850
26.500000	98.618523
26.900000	98.645226
27.200001	98.658623
27.600000	98.672226
28.000000	98.686874
28.500000	98.711426
29.000000	98.739578
29.500000	98.765938
30.000000	98.789993
30.400000	98.809509
30.700001	98.825012
31.100000	98.846741
31.500000	98.868927
32.000000	98.895782
32.500000	98.919907
33.000000	98.939690
33.500000	98.955597
34.000000	98.970726
34.500000	98.987762
35.000000	99.005791
35.500000	99.021614
36.000000	99.033974
36.500000	99.044830
37.000000	99.055893
37.500000	99.065742
38.200001	99.073700
38.700001	99.078232
39.500000	99.096283
40.000000	99.113365
40.599998	99.130089
41.200001	99.139069
41.799999	99.147194
42.500000	99.163521
43.099998	99.177628
43.700001	99.183647
44.400002	99.182602
45.000000	99.183052
45.500000	99.186882
46.200001	99.194176
46.799999	99.197990
47.500000	99.198486
48.200001	99.198799
48.700001	99.201004
49.400002	99.205521
50.000000	99.208168
50.799999	99.210037
51.500000	99.211769
52.200001	99.213104
53.000000	99.214233
53.799999	99.214218
54.500000	99.211823
55.200001	99.210243
56.000000	99.213379
57.000000	99.218750
58.000000	99.218460
59.000000	99.211349
60.000000	99.199066
60.799999	99.189842
61.500000	99.184608
62.200001	99.179245
63.000000	99.172073
64.000000	99.175415
65.000000	99.183868
66.000000	99.180008
67.000000	99.177605
68.000000	99.169838
69.000000	99.160965
70.000000	99.150101
71.000000	99.137367
72.000000	99.128494
73.000000	99.117661
74.000000	99.108315
75.000000	99.095100
76.199997	99.083755
77.500000	99.066742
78.800003	99.055756
80.000000	99.034561
81.199997	99.023842
82.500000	99.002625
83.800003	98.990463
85.000000	98.971802
86.199997	98.955414
87.500000	98.936668
88.500000	98.917213
90.000000	98.895287
91.199997	98.872932
92.500000	98.857460
93.800003	98.836250
95.000000	98.814468
96.199997	98.802200
97.500000	98.777649
98.800003	98.756836
100.000000	98.728958
101.500000	98.697731
103.000000	98.660988
104.400002	98.626434
106.000000	98.591110
107.500000	98.563629
109.000000	98.540642
110.599998	98.511208
112.000000	98.485924
113.800003	98.447426
115.000000	98.420097
117.199997	98.373123
118.000000	98.357277
120.599998	98.309326
122.000000	98.279327
124.099998	98.229942
125.000000	98.206116
126.500000	98.169601
128.000000	98.135574
131.500000	98.048645
132.000000	98.036621
134.000000	97.990189
136.000000	97.938354
138.000000	97.888123
140.000000	97.842171
143.000000	97.764854
145.000000	97.709625
147.500000	97.644302
150.000000	97.572144
152.500000	97.501884
155.000000	97.432785
157.500000	97.363319
160.000000	97.287552
162.500000	97.213844
165.000000	97.130127
167.500000	97.080048
170.000000	97.014801
172.500000	96.946136
175.000000	96.881279
177.500000	96.815163
180.000000	96.752090
182.500000	96.681824
185.000000	96.612984
187.500000	96.542648
190.000000	96.468811
192.500000	96.394989
195.000000	96.320343
197.500000	96.247612
200.000000	96.172256
203.000000	96.084770
206.000000	95.994789
209.000000	95.907127
212.000000	95.820908
214.000000	95.757126
218.000000	95.639648
220.000000	95.582413
224.000000	95.465027
227.000000	95.375443
230.000000	95.288628
233.000000	95.205040
236.000000	95.117188
240.000000	95.023163
243.000000	94.920074
247.000000	94.805115
250.000000	94.722572
254.000000	94.607971
258.000000	94.495407
262.000000	94.387207
265.000000	94.304337
269.000000	94.195641
272.000000	94.112762
276.000000	94.009842
280.000000	93.901848
285.000000	93.778641
290.000000	93.650894
295.000000	93.523346
300.000000	93.396111
304.000000	93.307556
307.000000	93.230415
311.000000	93.150917
315.000000	93.042725
320.000000	92.938988
325.000000	92.837799
330.000000	92.724831
335.000000	92.628067
340.000000	92.515472
345.000000	92.401031
350.000000	92.304398
355.000000	92.238724
360.000000	92.130348
365.000000	92.002853
370.000000	92.011063
375.000000	91.882828
382.000000	91.767517
387.000000	91.701584
395.000000	91.570274
400.000000	91.524490
406.000000	91.443817
412.000000	91.394142
418.000000	91.331650
425.000000	91.281616
431.000000	91.282234
437.000000	91.255035
444.000000	91.270546
450.000000	91.497559
455.000000	91.431236
462.000000	91.518456
468.000000	91.577682
475.000000	91.571655
482.000000	91.517632
487.000000	91.408554
494.000000	91.263687
500.000000	91.203461
508.000000	91.027618
515.000000	90.908722
522.000000	90.859177
530.000000	90.741348
538.000000	90.618073
545.000000	90.534210
552.000000	90.504440
560.000000	90.540764
570.000000	90.330399
580.000000	90.251801
590.000000	90.235725
600.000000	90.198013
608.000000	90.119629
615.000000	90.050491
622.000000	90.035751
630.000000	89.987556
640.000000	89.939514
650.000000	89.921547
660.000000	89.903725
670.000000	89.879150
680.000000	89.865341
690.000000	89.810867
700.000000	89.840012
710.000000	89.828606
720.000000	89.821960
730.000000	89.825211
740.000000	89.815674
750.000000	89.821419
762.000000	89.826767
775.000000	89.834358
788.000000	89.906281
800.000000	89.867783
812.000000	89.881676
825.000000	89.921494
838.000000	89.959526
850.000000	89.979782
862.000000	90.015587
875.000000	90.058502
885.000000	90.096001
900.000000	90.144424
912.000000	90.193146
925.000000	90.232254
938.000000	90.286964
950.000000	90.325531
962.000000	90.368179
975.000000	90.392166
988.000000	90.435028
1000.000000	90.461105
1015.000000	90.487045
1030.000000	90.512543
1044.000000	90.538895
1060.000000	90.574738
1075.000000	90.628075
1090.000000	90.684464
1106.000000	90.755280
1120.000000	90.837799
1138.000000	90.956802
1150.000000	91.031654
1172.000000	91.180954
1180.000000	91.239670
1206.000000	91.429611
1220.000000	91.533783
1241.000000	91.674835
1250.000000	91.733788
1265.000000	91.835922
1280.000000	91.938805
1315.000000	92.144257
1320.000000	92.168816
1340.000000	92.281876
1360.000000	92.382065
1380.000000	92.490372
1400.000000	92.586441
1430.000000	92.731850
1450.000000	92.821526
1475.000000	92.937035
1500.000000	93.059601
1525.000000	93.147881
1550.000000	93.268356
1575.000000	93.357483
1600.000000	93.458038
1625.000000	93.558823
1650.000000	93.653038
1675.000000	93.767433
1700.000000	93.869995
1725.000000	93.972717
1750.000000	94.086639
1775.000000	94.183411
1800.000000	94.298424
1825.000000	94.411049
1850.000000	94.541260
1875.000000	94.665756
1900.000000	94.813622
1925.000000	94.908562
1950.000000	95.030548
1975.000000	95.101227
2000.000000	95.178513
2030.000000	95.221191
2060.000000	95.305412
2090.000000	95.365692
2120.000000	95.412743
2140.000000	95.461716
2180.000000	95.521484
2200.000000	95.573822
2240.000000	95.616928
2270.000000	95.639877
2300.000000	95.695824
2330.000000	95.743774
2360.000000	95.842438
2400.000000	96.039932
2430.000000	96.261726
2470.000000	96.592613
2500.000000	96.821640
2540.000000	97.053497
2580.000000	97.228668
2620.000000	97.347641
2650.000000	97.410049
2690.000000	97.477654
2720.000000	97.525848
2760.000000	97.576843
2800.000000	97.625786
2850.000000	97.692810
2900.000000	97.771713
2950.000000	97.870247
3000.000000	97.985687
3040.000000	98.089394
3070.000000	98.169189
3110.000000	98.282028
3150.000000	98.397713
3200.000000	98.510178
3250.000000	98.342041
3300.000000	97.503563
3350.000000	97.110336
3400.000000	97.328590
3450.000000	97.472633
3500.000000	97.452194
3550.000000	97.298431
3600.000000	97.059204
3650.000000	96.901192
3700.000000	96.963501
3750.000000	97.128113
3820.000000	97.348465
3870.000000	97.471153
3950.000000	97.656723
4000.000000	97.798752
4060.000000	98.031219
4120.000000	98.366966
4180.000000	98.798141
4250.000000	99.381340
4310.000000	99.900818
4370.000000	100.392540
4440.000000	100.901031
4500.000000	101.257011
4550.000000	101.493546
4620.000000	101.722198
4680.000000	101.826439
4750.000000	101.838608
4820.000000	101.739632
4870.000000	101.605576
4940.000000	101.340729
5000.000000	101.050369
5080.000000	100.593170
5150.000000	100.120918
5220.000000	99.593521
5300.000000	98.943390
5380.000000	98.290260
5450.000000	97.776077
5520.000000	97.367256
5600.000000	97.078995
5700.000000	97.037308
5800.000000	97.259186
5900.000000	97.558098
6000.000000	97.774574
6080.000000	97.855034
6150.000000	97.853020
6220.000000	97.803337
6300.000000	97.698494
6400.000000	97.508667
6500.000000	97.281952
6600.000000	97.033615
6700.000000	96.778954
6800.000000	96.525345
6900.000000	96.281006
7000.000000	96.058540
7100.000000	95.860413
7200.000000	95.697990
7300.000000	95.586395
7400.000000	95.506874
7500.000000	95.463913
7620.000000	95.464142
7750.000000	95.517471
7880.000000	95.563431
8000.000000	95.522369
8120.000000	95.283440
8250.000000	94.718521
8380.000000	93.853508
8500.000000	92.833221
8620.000000	91.701141
8750.000000	90.418343
8850.000000	89.482262
9000.000000	88.221741
9120.000000	87.439346
9250.000000	86.834862
9380.000000	86.423714
9500.000000	86.204575
9620.000000	86.151306
9750.000000	86.270721
9880.000000	86.658684
10000.000000	87.238251
10150.000000	88.234985
10300.000000	89.611298
10440.000000	90.951248
10600.000000	92.139091
10750.000000	92.372856
10900.000000	91.702087
11060.000000	90.569496
11200.000000	89.609276
11380.000000	88.490562
11500.000000	87.670670
11720.000000	85.992027
11800.000000	85.516365
12060.000000	83.915718
12200.000000	83.009399
12410.000000	82.234085
12500.000000	82.150932
12650.000000	82.214790
12800.000000	82.494659
13150.000000	83.880577
13200.000000	84.132179
13400.000000	85.378616
13600.000000	86.930420
13800.000000	88.735107
14000.000000	90.913834
14300.000000	94.423500
14500.000000	96.125885
14750.000000	97.047791
15000.000000	97.736328
15250.000000	98.682549
15500.000000	97.960068
15750.000000	94.641678
16000.000000	91.123878
16250.000000	88.265045
16500.000000	85.981430
16750.000000	84.030746
17000.000000	82.169205
17250.000000	80.155678
17500.000000	77.789307
17750.000000	75.082672
18000.000000	71.889786
18250.000000	68.611397
18500.000000	65.779991
18750.000000	64.659996
19000.000000	65.161942
19250.000000	65.797897
19500.000000	66.889679
19750.000000	66.865883
