* frequency_hz	amplitude
20.299999	107.058060
20.600000	107.067146
20.900000	107.066833
21.200001	107.064819
21.400000	107.063988
21.799999	107.063301
22.000000	107.062668
22.400000	107.058853
22.700001	107.052551
23.000000	107.043205
23.299999	107.031235
23.600000	107.017143
24.000000	106.995270
24.299999	106.976486
24.700001	106.948517
25.000000	106.926079
25.400000	106.895630
25.799999	106.865608
26.200001	106.835564
26.500000	106.812103
26.900000	106.778793
27.200001	106.752533
27.600000	106.717407
28.000000	106.683838
28.500000	106.644180
29.000000	106.602928
29.500000	106.555733
30.000000	106.503036
30.400000	106.459839
30.700001	106.428146
31.100000	106.386948
31.500000	106.345879
32.000000	106.293274
32.500000	106.240417
33.000000	106.189499
33.500000	106.139046
34.000000	106.083855
34.500000	106.021599
35.000000	105.957161
35.500000	105.897972
36.000000	105.845680
36.500000	105.794556
37.000000	105.738258
37.500000	105.676422
38.200001	105.589333
38.700001	105.529823
39.500000	105.432434
40.000000	105.368484
40.599998	105.295097
41.200001	105.231461
41.799999	105.173553
42.500000	105.099709
43.099998	105.029259
43.700001	104.959419
44.400002	104.878418
45.000000	104.802551
45.500000	104.737671
46.200001	104.655930
46.799999	104.592484
47.500000	104.510536
48.200001	104.418564
48.700001	104.353661
49.400002	104.269905
50.000000	104.206558
50.799999	104.129906
51.500000	104.055222
52.200001	103.970009
53.000000	103.875443
53.799999	103.787193
54.500000	103.712982
55.200001	103.641327
56.000000	103.554329
57.000000	103.435989
58.000000	103.332855
59.000000	103.308708
60.000000	103.258835
60.799999	103.111984
61.500000	102.989891
62.200001	102.913750
63.000000	102.832436
64.000000	102.730812
65.000000	102.639679
66.000000	102.532242
67.000000	102.438545
68.000000	102.347061
69.000000	102.250671
70.000000	102.153625
71.000000	102.064407
72.000000	101.974007
73.000000	101.881721
74.000000	101.790726
75.000000	101.702171
76.199997	101.594925
77.500000	101.483002
78.800003	101.372925
80.000000	101.268959
81.199997	101.167282
82.500000	101.068466
83.800003	100.962784
85.000000	100.869438
86.199997	100.775711
87.500000	100.672577
88.500000	100.597137
90.000000	100.488144
91.199997	100.400406
92.500000	100.308952
93.800003	100.211876
95.000000	100.126976
96.199997	100.041862
97.500000	99.952911
98.800003	99.867020
100.000000	99.787140
101.500000	99.683624
103.000000	99.588501
104.400002	99.498169
106.000000	99.398888
107.500000	99.307220
109.000000	99.213318
110.599998	99.124710
112.000000	99.040047
113.800003	98.938446
115.000000	98.872307
117.199997	98.747795
118.000000	98.728882
120.599998	98.577316
122.000000	98.473923
124.099998	98.392502
125.000000	98.337158
126.500000	98.270584
128.000000	98.198837
131.500000	98.032753
132.000000	98.009247
134.000000	97.920853
136.000000	97.832947
138.000000	97.746437
140.000000	97.666122
143.000000	97.544235
145.000000	97.464760
147.500000	97.369415
150.000000	97.277420
152.500000	97.190063
155.000000	97.105438
157.500000	97.020844
160.000000	96.940552
162.500000	96.861374
165.000000	96.789139
167.500000	96.714340
170.000000	96.641762
172.500000	96.573624
175.000000	96.505013
177.500000	96.445297
180.000000	96.383087
182.500000	96.323807
185.000000	96.273041
187.500000	96.212555
190.000000	96.157227
192.500000	96.109589
195.000000	96.058838
197.500000	96.013298
200.000000	95.969971
203.000000	95.917870
206.000000	95.868401
209.000000	95.820023
212.000000	95.777390
214.000000	95.748810
218.000000	95.692505
220.000000	95.674385
224.000000	95.623955
227.000000	95.592834
230.000000	95.561005
233.000000	95.531357
236.000000	95.507614
240.000000	95.384666
243.000000	95.452957
247.000000	95.426582
250.000000	95.405258
254.000000	95.382477
258.000000	95.362946
262.000000	95.345276
265.000000	95.334473
269.000000	95.317963
272.000000	95.312653
276.000000	95.302597
280.000000	95.289787
285.000000	95.277237
290.000000	95.273026
295.000000	95.272964
300.000000	95.334732
304.000000	95.299797
307.000000	95.319611
311.000000	95.345802
315.000000	95.368637
320.000000	95.398636
325.000000	95.426483
330.000000	95.446312
335.000000	95.474174
340.000000	95.495163
345.000000	95.528458
350.000000	95.555450
355.000000	95.590408
360.000000	95.630203
365.000000	95.654488
370.000000	95.685219
375.000000	95.719574
382.000000	95.773209
387.000000	95.811783
395.000000	95.876740
400.000000	95.911530
406.000000	95.961113
412.000000	96.009666
418.000000	96.057831
425.000000	96.118469
431.000000	96.165207
437.000000	96.216560
444.000000	96.275444
450.000000	96.322815
455.000000	96.364784
462.000000	96.417961
468.000000	96.460091
475.000000	96.512321
482.000000	96.562874
487.000000	96.593933
494.000000	96.639656
500.000000	96.682541
508.000000	96.738289
515.000000	96.796547
522.000000	96.851288
530.000000	96.915199
538.000000	96.972244
545.000000	97.002182
552.000000	97.039780
560.000000	97.073830
570.000000	97.109070
580.000000	97.142593
590.000000	97.170723
600.000000	97.192871
608.000000	97.209030
615.000000	97.222420
622.000000	97.233505
630.000000	97.241974
640.000000	97.249878
650.000000	97.251884
660.000000	97.230865
670.000000	97.253311
680.000000	97.250092
690.000000	97.242180
700.000000	97.233322
710.000000	97.222504
720.000000	97.206909
730.000000	97.198715
740.000000	97.184052
750.000000	97.167137
762.000000	97.150620
775.000000	97.131187
788.000000	97.110054
800.000000	97.096443
812.000000	97.078690
825.000000	97.063759
838.000000	97.057961
850.000000	97.050552
862.000000	97.044060
875.000000	97.041855
885.000000	97.044586
900.000000	97.084953
912.000000	97.077606
925.000000	97.095337
938.000000	97.119644
950.000000	97.149429
962.000000	97.184250
975.000000	97.218086
988.000000	97.270218
1000.000000	97.313965
1015.000000	97.386421
1030.000000	97.452766
1044.000000	97.528282
1060.000000	97.619957
1075.000000	97.708908
1090.000000	97.805191
1106.000000	97.912598
1120.000000	98.005302
1138.000000	98.128311
1150.000000	98.214188
1172.000000	98.372574
1180.000000	98.423729
1206.000000	98.609566
1220.000000	98.704948
1241.000000	98.852249
1250.000000	98.911446
1265.000000	99.007339
1280.000000	99.104584
1315.000000	99.322403
1320.000000	99.362350
1340.000000	99.471130
1360.000000	99.588745
1380.000000	99.687134
1400.000000	99.807571
1430.000000	99.968384
1450.000000	100.068207
1475.000000	100.197945
1500.000000	100.327820
1525.000000	100.443436
1550.000000	100.569191
1575.000000	100.686417
1600.000000	100.808685
1625.000000	100.926498
1650.000000	101.044975
1675.000000	101.159470
1700.000000	101.273735
1725.000000	101.385086
1750.000000	101.498039
1775.000000	101.609161
1800.000000	101.709122
1825.000000	101.820045
1850.000000	101.920952
1875.000000	102.021339
1900.000000	102.114922
1925.000000	102.208801
1950.000000	102.295883
1975.000000	102.378441
2000.000000	102.457069
2030.000000	102.546631
2060.000000	102.623039
2090.000000	102.693420
2120.000000	102.756798
2140.000000	102.792397
2180.000000	102.855049
2200.000000	102.878571
2240.000000	102.910919
2270.000000	102.924797
2300.000000	102.929108
2330.000000	102.924225
2360.000000	102.910370
2400.000000	102.879303
2430.000000	102.839378
2470.000000	102.779427
2500.000000	102.727798
2540.000000	102.651581
2580.000000	102.564491
2620.000000	102.474915
2650.000000	102.397217
2690.000000	102.301056
2720.000000	102.227722
2760.000000	102.121971
2800.000000	102.024147
2850.000000	101.898582
2900.000000	101.777122
2950.000000	101.665031
3000.000000	101.558685
3040.000000	101.487419
3070.000000	101.431999
3110.000000	101.376488
3150.000000	101.316658
3200.000000	101.259438
3250.000000	101.209908
3300.000000	101.173378
3350.000000	101.144432
3400.000000	101.120773
3450.000000	101.097610
3500.000000	101.075775
3550.000000	101.056740
3600.000000	101.049835
3650.000000	101.044266
3700.000000	101.055656
3750.000000	101.076492
3820.000000	101.144241
3870.000000	101.220657
3950.000000	101.397980
4000.000000	101.537430
4060.000000	101.714806
4120.000000	101.887375
4180.000000	102.051086
4250.000000	102.214844
4310.000000	102.313080
4370.000000	102.360977
4440.000000	102.329872
4500.000000	102.221756
4550.000000	102.062149
4620.000000	101.718498
4680.000000	101.321075
4750.000000	100.745766
4820.000000	100.084412
4870.000000	99.592094
4940.000000	98.947098
5000.000000	98.520798
5080.000000	98.285492
5150.000000	98.464767
5220.000000	98.952057
5300.000000	99.736191
5380.000000	100.569702
5450.000000	101.207054
5520.000000	101.710403
5600.000000	102.081741
5700.000000	102.263313
5800.000000	102.189270
5900.000000	101.956650
6000.000000	101.641098
6080.000000	101.368507
6150.000000	101.133606
6220.000000	100.898109
6300.000000	100.665504
6400.000000	100.409218
6500.000000	100.205788
6600.000000	100.064682
6700.000000	99.982224
6800.000000	99.969582
6900.000000	100.020836
7000.000000	100.151619
7100.000000	100.337761
7200.000000	100.597107
7300.000000	100.895813
7400.000000	101.226555
7500.000000	101.648705
7620.000000	102.248047
7750.000000	102.817429
7880.000000	103.147919
8000.000000	103.089478
8120.000000	102.603706
8250.000000	101.669449
8380.000000	100.415497
8500.000000	99.995377
8620.000000	98.846481
8750.000000	97.615059
8850.000000	96.825516
9000.000000	96.040947
9120.000000	95.524605
9250.000000	95.411064
9380.000000	95.896507
9500.000000	96.484268
9620.000000	96.753723
9750.000000	96.614075
9880.000000	96.440285
10000.000000	96.380005
10150.000000	96.290359
10300.000000	96.241760
10440.000000	96.181572
10600.000000	96.164536
10750.000000	96.167885
10900.000000	96.215866
11060.000000	96.256424
11200.000000	96.311104
11380.000000	96.415947
11500.000000	96.468796
11720.000000	96.601227
11800.000000	96.647339
12060.000000	96.797562
12200.000000	96.906891
12410.000000	97.104248
12500.000000	97.216301
12650.000000	97.462646
12800.000000	97.787155
13150.000000	99.014900
13200.000000	99.248383
13400.000000	100.369080
13600.000000	101.615532
13800.000000	102.418243
14000.000000	102.042122
14300.000000	99.857040
14500.000000	98.237442
14750.000000	96.507568
15000.000000	95.171547
15250.000000	94.044106
15500.000000	93.267159
15750.000000	93.399719
16000.000000	93.579857
16250.000000	92.905685
16500.000000	92.076248
16750.000000	91.316521
17000.000000	90.709312
17250.000000	90.461868
17500.000000	90.047195
17750.000000	89.169037
18000.000000	88.230774
18250.000000	87.775322
18500.000000	88.393532
18750.000000	89.058525
19000.000000	88.546997
19250.000000	88.148712
19500.000000	89.251045
19750.000000	91.112717
