* frequency_hz	amplitude
20.299999	106.139
20.600000	106.129
20.900000	106.116
21.200001	106.105
21.400000	106.099
21.799999	106.089
22.000000	106.084
22.400000	106.075
22.700001	106.068
23.000000	106.061
23.299999	106.055
23.600000	106.049
24.000000	106.037
24.299999	106.025
24.700001	106.004
25.000000	105.987
25.400000	105.966
25.799999	105.951
26.200001	105.939
26.500000	105.930
26.900000	105.915
27.200001	105.902
27.600000	105.883
28.000000	105.865
28.500000	105.842
29.000000	105.812
29.500000	105.775
30.000000	105.740
30.400000	105.721
30.700001	105.712
31.100000	105.702
31.500000	105.689
32.000000	105.663
32.500000	105.632
33.000000	105.602
33.500000	105.576
34.000000	105.549
34.500000	105.518
35.000000	105.485
35.500000	105.454
36.000000	105.425
36.500000	105.396
37.000000	105.366
37.500000	105.334
38.200001	105.287
38.700001	105.252
39.500000	105.200
40.000000	105.169
40.599998	105.130
41.200001	105.090
41.799999	105.051
42.500000	105.005
43.099998	104.961
43.700001	104.919
44.400002	104.878
45.000000	104.840
45.500000	104.803
46.200001	104.748
46.799999	104.707
47.500000	104.661
48.200001	104.612
48.700001	104.578
49.400002	104.528
50.000000	104.482
50.799999	104.419
51.500000	104.368
52.200001	104.315
53.000000	104.255
53.799999	104.201
54.500000	104.151
55.200001	104.094
56.000000	104.031
57.000000	103.956
58.000000	103.882
59.000000	103.801
60.000000	103.723
60.799999	103.669
61.500000	103.616
62.200001	103.558
63.000000	103.496
64.000000	103.415
65.000000	103.331
66.000000	103.249
67.000000	103.177
68.000000	103.107
69.000000	103.022
70.000000	102.943
71.000000	102.854
72.000000	102.782
73.000000	102.713
74.000000	102.617
75.000000	102.543
76.199997	102.438
77.500000	102.355
78.800003	102.251
80.000000	102.143
81.199997	102.068
82.500000	101.951
83.800003	101.848
85.000000	101.757
86.199997	101.660
87.500000	101.560
88.500000	101.471
90.000000	101.356
91.199997	101.256
92.500000	101.165
93.800003	101.052
95.000000	100.974
96.199997	100.881
97.500000	100.779
98.800003	100.675
100.000000	100.579
101.500000	100.468
103.000000	100.337
104.400002	100.307
106.000000	100.131
107.500000	100.009
109.000000	99.890
110.599998	99.768
112.000000	99.672
113.800003	99.507
115.000000	99.424
117.199997	99.278
118.000000	99.179
120.599998	99.145
122.000000	98.961
124.099998	98.769
125.000000	98.733
126.500000	98.638
128.000000	98.558
131.500000	98.237
132.000000	98.211
134.000000	98.050
136.000000	98.044
138.000000	97.834
140.000000	97.632
143.000000	97.441
145.000000	97.409
147.500000	97.169
150.000000	96.991
152.500000	96.919
155.000000	96.727
157.500000	96.597
160.000000	96.433
162.500000	96.325
165.000000	96.151
167.500000	96.095
170.000000	96.066
172.500000	96.006
175.000000	95.938
177.500000	95.759
180.000000	95.829
182.500000	95.691
185.000000	95.706
187.500000	95.508
190.000000	95.419
192.500000	95.298
195.000000	95.252
197.500000	95.155
200.000000	95.100
203.000000	95.021
206.000000	94.956
209.000000	94.901
212.000000	94.842
214.000000	94.799
218.000000	94.752
220.000000	94.723
224.000000	94.657
227.000000	94.616
230.000000	94.593
233.000000	94.554
236.000000	94.539
240.000000	94.527
243.000000	94.533
247.000000	94.528
250.000000	94.497
254.000000	94.458
258.000000	94.416
262.000000	94.325
265.000000	94.250
269.000000	94.166
272.000000	94.113
276.000000	94.052
280.000000	94.013
285.000000	93.961
290.000000	93.928
295.000000	93.897
300.000000	93.864
304.000000	93.830
307.000000	93.808
311.000000	93.744
315.000000	93.648
320.000000	93.566
325.000000	93.668
330.000000	93.748
335.000000	93.770
340.000000	93.772
345.000000	93.768
350.000000	93.764
355.000000	93.769
360.000000	93.774
365.000000	93.770
370.000000	93.777
375.000000	93.783
382.000000	93.780
387.000000	93.783
395.000000	93.772
400.000000	93.772
406.000000	93.767
412.000000	93.755
418.000000	93.750
425.000000	93.735
431.000000	93.728
437.000000	93.721
444.000000	93.707
450.000000	93.703
455.000000	93.693
462.000000	93.685
468.000000	93.678
475.000000	93.661
482.000000	93.655
487.000000	93.649
494.000000	93.637
500.000000	93.632
508.000000	93.615
515.000000	93.607
522.000000	93.596
530.000000	93.584
538.000000	93.573
545.000000	93.562
552.000000	93.551
560.000000	93.536
570.000000	93.519
580.000000	93.504
590.000000	93.487
600.000000	93.466
608.000000	93.453
615.000000	93.437
622.000000	93.424
630.000000	93.411
640.000000	93.390
650.000000	93.376
660.000000	93.357
670.000000	93.335
680.000000	93.313
690.000000	93.299
700.000000	93.276
710.000000	93.263
720.000000	93.239
730.000000	93.229
740.000000	93.206
750.000000	93.196
762.000000	93.171
775.000000	93.152
788.000000	93.132
800.000000	93.120
812.000000	93.105
825.000000	93.095
838.000000	93.090
850.000000	93.083
862.000000	93.081
875.000000	93.085
885.000000	93.090
900.000000	93.097
912.000000	93.112
925.000000	93.129
938.000000	93.149
950.000000	93.174
962.000000	93.200
975.000000	93.233
988.000000	93.270
1000.000000	93.310
1015.000000	93.363
1030.000000	93.420
1044.000000	93.476
1060.000000	93.543
1075.000000	93.612
1090.000000	93.679
1106.000000	93.753
1120.000000	93.820
1138.000000	93.905
1150.000000	93.958
1172.000000	94.061
1180.000000	94.091
1206.000000	94.205
1220.000000	94.262
1241.000000	94.339
1250.000000	94.368
1265.000000	94.423
1280.000000	94.471
1315.000000	94.573
1320.000000	94.589
1340.000000	94.642
1360.000000	94.688
1380.000000	94.735
1400.000000	94.781
1430.000000	94.838
1450.000000	94.875
1475.000000	94.922
1500.000000	94.968
1525.000000	95.012
1550.000000	95.058
1575.000000	95.111
1600.000000	95.163
1625.000000	95.230
1650.000000	95.302
1675.000000	95.368
1700.000000	95.443
1725.000000	95.522
1750.000000	95.607
1775.000000	95.694
1800.000000	95.783
1825.000000	95.882
1850.000000	95.980
1875.000000	96.092
1900.000000	96.203
1925.000000	96.323
1950.000000	96.443
1975.000000	96.571
2000.000000	96.709
2030.000000	96.862
2060.000000	97.031
2090.000000	97.205
2120.000000	97.380
2140.000000	97.499
2180.000000	97.746
2200.000000	97.871
2240.000000	98.124
2270.000000	98.313
2300.000000	98.501
2330.000000	98.693
2360.000000	98.876
2400.000000	99.111
2430.000000	99.282
2470.000000	99.496
2500.000000	99.643
2540.000000	99.824
2580.000000	99.986
2620.000000	100.136
2650.000000	100.243
2690.000000	100.373
2720.000000	100.450
2760.000000	100.523
2800.000000	100.559
2850.000000	100.558
2900.000000	100.516
2950.000000	100.450
3000.000000	100.372
3040.000000	100.304
3070.000000	100.251
3110.000000	100.184
3150.000000	100.118
3200.000000	100.039
3250.000000	99.960
3300.000000	99.886
3350.000000	99.810
3400.000000	99.736
3450.000000	99.660
3500.000000	99.580
3550.000000	99.491
3600.000000	99.394
3650.000000	99.276
3700.000000	99.147
3750.000000	99.010
3820.000000	98.787
3870.000000	98.609
3950.000000	98.315
4000.000000	98.153
4060.000000	97.888
4120.000000	97.671
4180.000000	97.516
4250.000000	97.457
4310.000000	97.533
4370.000000	97.725
4440.000000	98.023
4500.000000	98.251
4550.000000	98.402
4620.000000	98.571
4680.000000	98.668
4750.000000	98.703
4820.000000	98.626
4870.000000	98.501
4940.000000	98.231
5000.000000	97.920
5080.000000	97.466
5150.000000	97.077
5220.000000	96.751
5300.000000	96.480
5380.000000	96.349
5450.000000	96.345
5520.000000	96.413
5600.000000	96.569
5700.000000	96.835
5800.000000	97.143
5900.000000	97.464
6000.000000	97.774
6080.000000	98.003
6150.000000	98.171
6220.000000	98.312
6300.000000	98.425
6400.000000	98.507
6500.000000	98.525
6600.000000	98.498
6700.000000	98.429
6800.000000	98.333
6900.000000	98.232
7000.000000	98.144
7100.000000	98.101
7200.000000	98.084
7300.000000	98.142
7400.000000	98.278
7500.000000	98.429
7620.000000	98.607
7750.000000	98.790
7880.000000	98.919
8000.000000	98.937
8120.000000	98.823
8250.000000	98.540
8380.000000	98.152
8500.000000	97.739
8620.000000	97.300
8750.000000	96.829
8850.000000	96.496
9000.000000	96.070
9120.000000	95.805
9250.000000	95.640
9380.000000	95.586
9500.000000	95.626
9620.000000	95.731
9750.000000	95.923
9880.000000	96.158
10000.000000	96.361
10150.000000	96.614
10300.000000	96.695
10440.000000	96.558
10600.000000	96.121
10750.000000	95.518
10900.000000	94.857
11060.000000	94.203
11200.000000	93.715
11380.000000	93.132
11500.000000	92.755
11720.000000	92.077
11800.000000	91.841
12060.000000	91.389
12200.000000	91.467
12410.000000	92.006
12500.000000	92.326
12650.000000	92.912
12800.000000	93.503
13150.000000	94.763
13200.000000	94.901
13400.000000	95.217
13600.000000	94.967
13800.000000	94.112
14000.000000	92.882
14300.000000	90.973
14500.000000	89.880
14750.000000	88.789
15000.000000	88.038
15250.000000	87.643
15500.000000	87.606
15750.000000	88.015
16000.000000	88.968
16250.000000	90.543
16500.000000	92.723
16750.000000	94.381
17000.000000	93.661
17250.000000	91.068
17500.000000	88.157
17750.000000	85.235
18000.000000	82.413
18250.000000	80.369
18500.000000	78.782
18750.000000	77.915
19000.000000	77.609
19250.000000	77.614
19500.000000	77.656
19750.000000	77.305
