* frequency_hz	amplitude
20.299999	102.899796
20.600000	102.959801
20.900000	103.007133
21.200001	103.047722
21.400000	103.073074
21.799999	103.124535
22.000000	103.152176
22.400000	103.211960
22.700001	103.258980
23.000000	103.304993
23.299999	103.347412
23.600000	103.384804
24.000000	103.427444
24.299999	103.456390
24.700001	103.494873
25.000000	103.525299
25.400000	103.567886
25.799999	103.610428
26.200001	103.650223
26.500000	103.677544
26.900000	103.710976
27.200001	103.734276
27.600000	103.763382
28.000000	103.790115
28.500000	103.819855
29.000000	103.846733
29.500000	103.873116
30.000000	103.900238
30.400000	103.921661
30.700001	103.936768
31.100000	103.954956
31.500000	103.970932
32.000000	103.988510
32.500000	104.004143
33.000000	104.018013
33.500000	104.030487
34.000000	104.042427
34.500000	104.054123
35.000000	104.064911
35.500000	104.074211
36.000000	104.082405
36.500000	104.090012
37.000000	104.096313
37.500000	104.100121
38.200001	104.101852
38.700001	104.102310
39.500000	104.101494
40.000000	104.098907
40.599998	104.095810
41.200001	104.094902
41.799999	104.093208
42.500000	104.084747
43.099998	104.074173
43.700001	104.064934
44.400002	104.054276
45.000000	104.042038
45.500000	104.030106
46.200001	104.013786
46.799999	104.002480
47.500000	103.993111
48.200001	103.981651
48.700001	103.967270
49.400002	103.943085
50.000000	103.931366
50.799999	103.933136
51.500000	103.931183
52.200001	103.914948
53.000000	103.894135
53.799999	103.879349
54.500000	103.859512
55.200001	103.832664
56.000000	103.807831
57.000000	103.777855
58.000000	103.755463
59.000000	103.757019
60.000000	103.705009
60.799999	103.644547
61.500000	103.612488
62.200001	103.589073
63.000000	103.561470
64.000000	103.524948
65.000000	103.480011
66.000000	103.444908
67.000000	103.407959
68.000000	103.367325
69.000000	103.327682
70.000000	103.284615
71.000000	103.242867
72.000000	103.203674
73.000000	103.162888
74.000000	103.118599
75.000000	103.075989
76.199997	103.026520
77.500000	102.970016
78.800003	102.913261
80.000000	102.861801
81.199997	102.808960
82.500000	102.752747
83.800003	102.695892
85.000000	102.642105
86.199997	102.591454
87.500000	102.534454
88.500000	102.491119
90.000000	102.426674
91.199997	102.372749
92.500000	102.316551
93.800003	102.259979
95.000000	102.206680
96.199997	102.157280
97.500000	102.104385
98.800003	102.047073
100.000000	101.996323
101.500000	101.932014
103.000000	101.871040
104.400002	101.812927
106.000000	101.744255
107.500000	101.681480
109.000000	101.620026
110.599998	101.551544
112.000000	101.494232
113.800003	101.419540
115.000000	101.371216
117.199997	101.284492
118.000000	101.251877
120.599998	101.146225
122.000000	101.090431
124.099998	101.006577
125.000000	100.971237
126.500000	100.912262
128.000000	100.853554
131.500000	100.719269
132.000000	100.700211
134.000000	100.622971
136.000000	100.549545
138.000000	100.476830
140.000000	100.403160
143.000000	100.295357
145.000000	100.223824
147.500000	100.136780
150.000000	100.047653
152.500000	99.965927
155.000000	99.880539
157.500000	99.798615
160.000000	99.716507
162.500000	99.637650
165.000000	99.558586
167.500000	99.481392
170.000000	99.404366
172.500000	99.328156
175.000000	99.254440
177.500000	99.181198
180.000000	99.107315
182.500000	99.036484
185.000000	98.963799
187.500000	98.895264
190.000000	98.825638
192.500000	98.758957
195.000000	98.691307
197.500000	98.622482
200.000000	98.557312
203.000000	98.477982
206.000000	98.404724
209.000000	98.328972
212.000000	98.257439
214.000000	98.209190
218.000000	98.114418
220.000000	98.068779
224.000000	97.976334
227.000000	97.909058
230.000000	97.839371
233.000000	97.774284
236.000000	97.708237
240.000000	97.623291
243.000000	97.557961
247.000000	97.476364
250.000000	97.415710
254.000000	97.338295
258.000000	97.257683
262.000000	97.180222
265.000000	97.122971
269.000000	97.050087
272.000000	96.995712
276.000000	96.923737
280.000000	96.853096
285.000000	96.767975
290.000000	96.684738
295.000000	96.603371
300.000000	96.523712
304.000000	96.462120
307.000000	96.416656
311.000000	96.357574
315.000000	96.298897
320.000000	96.230171
325.000000	96.161217
330.000000	96.091690
335.000000	96.024345
340.000000	95.961746
345.000000	95.897812
350.000000	95.836655
355.000000	95.778946
360.000000	95.721626
365.000000	95.667679
370.000000	95.611687
375.000000	95.558578
382.000000	95.487518
387.000000	95.442230
395.000000	95.367188
400.000000	95.325226
406.000000	95.274422
412.000000	95.219009
418.000000	95.167747
425.000000	95.110664
431.000000	95.063171
437.000000	95.016548
444.000000	94.963593
450.000000	94.919830
455.000000	94.883011
462.000000	94.837090
468.000000	94.798698
475.000000	94.752258
482.000000	94.710068
487.000000	94.680862
494.000000	94.643265
500.000000	94.608063
508.000000	94.572403
515.000000	94.536453
522.000000	94.503235
530.000000	94.465378
538.000000	94.431190
545.000000	94.401207
552.000000	94.374329
560.000000	94.343224
570.000000	94.308670
580.000000	94.275955
590.000000	94.246422
600.000000	94.218918
608.000000	94.197838
615.000000	94.182808
622.000000	94.169334
630.000000	94.159073
640.000000	94.134995
650.000000	94.122665
660.000000	94.110519
670.000000	94.102310
680.000000	94.096184
690.000000	94.090332
700.000000	94.087875
710.000000	94.086952
720.000000	94.090462
730.000000	94.094330
740.000000	94.100281
750.000000	94.109772
762.000000	94.122543
775.000000	94.143646
788.000000	94.170067
800.000000	94.199593
812.000000	94.225067
825.000000	94.263412
838.000000	94.305016
850.000000	94.356720
862.000000	94.410294
875.000000	94.473633
885.000000	94.516289
900.000000	94.588493
912.000000	94.632362
925.000000	94.648849
938.000000	94.661263
950.000000	94.711281
962.000000	94.789543
975.000000	94.889282
988.000000	94.997498
1000.000000	95.098495
1015.000000	95.228317
1030.000000	95.358307
1044.000000	95.480621
1060.000000	95.625084
1075.000000	95.759941
1090.000000	95.900795
1106.000000	96.046127
1120.000000	96.174339
1138.000000	96.339645
1150.000000	96.448402
1172.000000	96.646790
1180.000000	96.717850
1206.000000	96.949768
1220.000000	97.066734
1241.000000	97.245102
1250.000000	97.316025
1265.000000	97.438057
1280.000000	97.556175
1315.000000	97.807922
1320.000000	97.840057
1340.000000	97.957092
1360.000000	98.057961
1380.000000	98.228394
1400.000000	98.361145
1430.000000	98.545021
1450.000000	98.715851
1475.000000	98.921349
1500.000000	99.112595
1525.000000	99.295967
1550.000000	99.472099
1575.000000	99.643158
1600.000000	99.808975
1625.000000	99.969322
1650.000000	100.126137
1675.000000	100.281105
1700.000000	100.400223
1725.000000	100.525604
1750.000000	100.652420
1775.000000	100.800758
1800.000000	100.922279
1825.000000	101.019066
1850.000000	101.093399
1875.000000	101.149925
1900.000000	101.184433
1925.000000	101.198761
1950.000000	101.196602
1975.000000	101.173813
2000.000000	101.136215
2030.000000	101.081604
2060.000000	101.022034
2090.000000	100.969505
2120.000000	100.930717
2140.000000	100.913986
2180.000000	100.910011
2200.000000	100.925659
2240.000000	100.981094
2270.000000	101.043625
2300.000000	101.120422
2330.000000	101.207909
2360.000000	101.295303
2400.000000	101.406876
2430.000000	101.482048
2470.000000	101.556419
2500.000000	101.591354
2540.000000	101.607018
2580.000000	101.585289
2620.000000	101.529297
2650.000000	101.466881
2690.000000	101.362267
2720.000000	101.269310
2760.000000	101.133385
2800.000000	100.992157
2850.000000	100.820343
2900.000000	100.669250
2950.000000	100.535072
3000.000000	100.412262
3040.000000	100.324059
3070.000000	100.263199
3110.000000	100.192848
3150.000000	100.130615
3200.000000	100.068748
3250.000000	100.027802
3300.000000	100.003624
3350.000000	99.997360
3400.000000	100.007172
3450.000000	100.032631
3500.000000	100.074364
3550.000000	100.129326
3600.000000	100.197220
3650.000000	100.277710
3700.000000	100.374382
3750.000000	100.481628
3820.000000	100.657318
3870.000000	100.796585
3950.000000	101.056541
4000.000000	101.243454
4060.000000	101.491966
4120.000000	101.735489
4180.000000	101.931198
4250.000000	102.054062
4310.000000	102.027489
4370.000000	101.837212
4440.000000	101.386032
4500.000000	100.812439
4550.000000	100.224495
4620.000000	99.308327
4680.000000	98.487114
4750.000000	97.573799
4820.000000	96.780945
4870.000000	96.334824
4940.000000	95.919693
5000.000000	95.783539
5080.000000	95.892105
5150.000000	96.213135
5220.000000	96.697311
5300.000000	97.392914
5380.000000	98.190628
5450.000000	98.945297
5520.000000	99.722443
5600.000000	100.628532
5700.000000	101.738800
5800.000000	102.759399
5900.000000	103.604736
6000.000000	104.188057
6080.000000	104.431137
6150.000000	104.485672
6220.000000	104.412544
6300.000000	104.212463
6400.000000	103.835266
6500.000000	103.399818
6600.000000	103.012192
6700.000000	102.719696
6800.000000	102.437294
6900.000000	102.208199
7000.000000	102.068130
7100.000000	102.029663
7200.000000	102.107140
7300.000000	102.297188
7400.000000	102.588127
7500.000000	102.978378
7620.000000	103.562538
7750.000000	104.272362
7880.000000	104.886765
8000.000000	105.114708
8120.000000	104.767830
8250.000000	103.728455
8380.000000	102.278625
8500.000000	100.814270
8620.000000	99.331375
8750.000000	97.758667
8850.000000	96.592224
9000.000000	94.944374
9120.000000	93.732971
9250.000000	92.529045
9380.000000	91.439255
9500.000000	90.546570
9620.000000	89.756088
9750.000000	89.012955
9880.000000	88.416725
10000.000000	88.023659
10150.000000	87.810516
10300.000000	88.028633
10440.000000	88.684402
10600.000000	89.918976
10750.000000	91.340370
10900.000000	92.797516
11060.000000	94.156395
11200.000000	95.127487
11380.000000	96.140793
11500.000000	96.755638
11720.000000	97.917526
11800.000000	98.391243
12060.000000	100.134964
12200.000000	101.076035
12410.000000	101.859703
12500.000000	101.738861
12650.000000	100.893692
12800.000000	99.544769
13150.000000	96.257797
13200.000000	95.854286
13400.000000	94.431862
13600.000000	93.347420
13800.000000	92.568802
14000.000000	92.059860
14300.000000	91.804192
14500.000000	92.026855
14750.000000	92.764885
15000.000000	94.078064
15250.000000	95.870415
15500.000000	97.486404
15750.000000	97.121132
16000.000000	94.695610
16250.000000	92.008560
16500.000000	89.756622
16750.000000	88.004944
17000.000000	86.826675
17250.000000	85.798851
17500.000000	84.795525
17750.000000	83.877998
18000.000000	83.102905
18250.000000	82.433990
18500.000000	81.789803
18750.000000	81.067039
19000.000000	80.088173
19250.000000	78.538689
19500.000000	76.513489
19750.000000	73.636055
